I, II, III, aVR, aVL, aVF, V1, V2, V3, V4, V5, V6, 
-78, 63, 141, 7, -109, 102, 4, -39, 68, 146, 107, -122, 
-78, 63, 141, 7, -109, 102, 4, -34, 68, 146, 117, -122, 
-68, 73, 141, -2, -104, 107, 9, -34, 78, 151, 122, -112, 
-68, 87, 156, -9, -112, 122, 9, -34, 78, 156, 122, -107, 
-53, 82, 136, -14, -95, 109, 9, -43, 73, 156, 117, -107, 
-48, 68, 117, -9, -82, 92, 9, -43, 82, 161, 122, -102, 
-34, 58, 92, -12, -63, 75, 14, -43, 78, 165, 126, -102, 
-29, 63, 92, -17, -61, 78, 14, -43, 82, 175, 126, -97, 
-34, 63, 97, -14, -65, 80, 19, -53, 82, 165, 122, -97, 
-34, 58, 92, -12, -63, 75, 19, -53, 82, 165, 126, -97, 
-34, 53, 87, -9, -61, 70, 14, -48, 82, 170, 126, -97, 
-34, 39, 73, -2, -53, 56, 9, -48, 82, 170, 131, -92, 
-24, 53, 78, -14, -51, 65, 19, -48, 92, 170, 122, -97, 
-24, 68, 92, -21, -58, 80, 9, -48, 87, 170, 122, -97, 
-14, 73, 87, -29, -51, 80, 4, -43, 82, 170, 122, -97, 
-9, 73, 82, -31, -46, 78, 4, -34, 82, 161, 122, -97, 
-24, 58, 82, -17, -53, 70, 19, -34, 82, 170, 122, -97, 
-29, 48, 78, -9, -53, 63, 14, -34, 78, 161, 122, -97, 
-39, 39, 78, 0, -58, 58, 19, -34, 78, 161, 122, -102, 
-43, 24, 68, 9, -56, 46, 19, -29, 78, 161, 117, -102, 
-14, 43, 58, -14, -36, 51, 9, -34, 87, 165, 117, -102, 
4, 43, 39, -24, -17, 41, 4, -34, 73, 161, 112, -97, 
19, 58, 39, -39, -9, 48, 4, -39, 63, 156, 112, -92, 
34, 68, 34, -51, 0, 51, 4, -48, 63, 151, 112, -97, 
29, 63, 34, -46, -2, 48, 0, -39, 63, 156, 112, -87, 
29, 58, 29, -43, 0, 43, -4, -34, 58, 146, 102, -87, 
24, 63, 39, -43, -7, 51, -9, -29, 48, 141, 107, -92, 
14, 58, 43, -36, -14, 51, -9, -24, 53, 146, 107, -87, 
14, 34, 19, -24, -2, 26, -14, -9, 58, 146, 112, -78, 
14, 24, 9, -19, 2, 17, -14, -9, 58, 151, 107, -82, 
14, 14, 0, -14, 7, 7, -14, -14, 58, 151, 107, -82, 
24, 4, -19, -14, 21, -7, -14, -9, 58, 156, 107, -82, 
19, 0, -19, -9, 19, -9, -29, -14, 34, 136, 102, -92, 
9, 4, -4, -7, 7, 0, -34, -24, 19, 122, 92, -97, 
9, 0, -9, -4, 9, -4, -39, -34, 9, 112, 78, -107, 
-9, -14, -4, 12, -2, -9, -34, -43, 0, 97, 68, -112, 
0, -24, -24, 12, 12, -24, -19, -43, 9, 97, 58, -102, 
4, -24, -29, 9, 17, -26, -14, -43, 9, 97, 53, -112, 
0, -19, -19, 9, 9, -19, -4, -48, 9, 92, 53, -102, 
4, -24, -29, 9, 17, -26, -4, -48, 9, 92, 53, -102, 
-34, -19, 14, 26, -24, -2, 14, -39, 14, 107, 68, -102, 
-39, -9, 29, 24, -34, 9, 19, -29, 24, 112, 73, -97, 
-48, 4, 53, 21, -51, 29, 24, -29, 29, 117, 78, -92, 
-53, 14, 68, 19, -61, 41, 34, -29, 34, 122, 82, -87, 
-68, 9, 78, 29, -73, 43, 34, -39, 24, 122, 68, -78, 
-68, 4, 73, 31, -70, 39, 34, -39, 24, 122, 63, -78, 
-68, -9, 58, 39, -63, 24, 34, -39, 24, 112, 63, -78, 
-73, -14, 58, 43, -65, 21, 34, -39, 19, 112, 58, -87, 
-73, -29, 43, 51, -58, 7, 39, -39, 14, 107, 43, -82, 
-73, -34, 39, 53, -56, 2, 39, -39, 14, 107, 43, -78, 
-73, -39, 34, 56, -53, -2, 43, -39, 19, 107, 39, -68, 
-82, -48, 34, 65, -58, -7, 43, -39, 19, 107, 34, -63, 
-78, -34, 43, 56, -61, 4, 48, -24, 24, 117, 39, -58, 
-73, -34, 39, 53, -56, 2, 53, -19, 29, 117, 39, -53, 
-58, -29, 29, 43, -43, 0, 53, -14, 29, 117, 39, -48, 
-53, -19, 34, 36, -43, 7, 58, -9, 29, 117, 39, -43, 
-68, -29, 39, 48, -53, 4, 68, -24, 29, 117, 24, -39, 
-92, -34, 58, 63, -75, 12, 68, -24, 29, 117, 19, -39, 
-107, -48, 58, 78, -82, 4, 68, -24, 34, 117, 9, -34, 
-112, -53, 58, 82, -85, 2, 68, -24, 34, 117, 4, -24, 
-131, -87, 43, 109, -87, -21, 68, -24, 34, 117, 24, -24, 
-102, -48, 53, 75, -78, 2, 58, -24, 14, 102, 14, -24, 
-78, -9, 68, 43, -73, 29, 53, -24, 19, 102, 9, -24, 
-87, -19, 68, 53, -78, 24, 63, -9, 34, 112, 19, -14, 
-97, -43, 53, 70, -75, 4, 78, 14, 58, 131, 34, 4, 
-68, -34, 34, 51, -51, 0, 92, 43, 78, 141, 43, 4, 
-48, 9, 58, 19, -53, 34, 97, 68, 87, 136, 34, 4, 
-68, 29, 97, 19, -82, 63, 97, 82, 97, 146, 34, 9, 
-73, -29, 43, 51, -58, 7, 107, 102, 117, 161, 43, 14, 
-34, -48, -14, 41, -9, -31, 87, 122, 107, 151, 34, 14, 
19, -14, -34, -2, 26, -24, 48, 126, 82, 141, 24, 9, 
39, -19, -58, -9, 48, -39, 24, 151, 78, 141, 43, 29, 
97, -24, -122, -36, 109, -73, -9, 209, 82, 151, 58, 53, 
200, -14, -214, -92, 207, -114, -82, 248, 43, 141, 58, 68, 
253, -4, -258, -124, 256, -131, -151, 292, 0, 122, 53, 78, 
302, 4, -297, -153, 300, -146, -209, 322, -9, 126, 73, 102, 
370, 39, -331, -204, 351, -146, -263, 317, -19, 151, 97, 151, 
429, 78, -351, -253, 390, -136, -336, 283, -39, 170, 126, 204, 
497, 131, -366, -314, 431, -117, -419, 234, -87, 185, 165, 273, 
580, 156, -424, -368, 502, -134, -507, 151, -209, 131, 165, 297, 
610, 126, -483, -368, 546, -178, -614, 34, -380, 34, 126, 292, 
658, 102, -556, -380, 607, -226, -688, -87, -531, -63, 82, 273, 
692, 68, -624, -380, 658, -278, -766, -234, -697, -170, 24, 263, 
688, 39, -649, -363, 668, -305, -844, -385, -863, -283, -34, 244, 
712, 43, -668, -378, 690, -312, -961, -507, -1000, -366, -63, 253, 
814, 78, -736, -446, 775, -329, -1078, -614, -1088, -419, -82, 283, 
902, 9, -893, -456, 897, -441, -1166, -727, -1156, -468, -92, 312, 
985, -87, -1073, -448, 1029, -580, -1229, -829, -1229, -517, -107, 341, 
1098, -78, -1176, -509, 1137, -627, -1307, -946, -1307, -575, -136, 336, 
1166, -29, -1195, -568, 1180, -612, -1366, -1049, -1390, -634, -161, 341, 
1176, -68, -1244, -553, 1210, -656, -1371, -1107, -1434, -678, -175, 331, 
1166, -190, -1356, -488, 1261, -773, -1361, -1137, -1468, -722, -209, 322, 
1176, -283, -1459, -446, 1317, -871, -1361, -1166, -1532, -790, -268, 278, 
1205, -346, -1551, -429, 1378, -949, -1342, -1185, -1590, -854, -326, 214, 
1220, -405, -1625, -407, 1422, -1015, -1302, -1205, -1610, -897, -366, 165, 
1215, -468, -1683, -373, 1449, -1076, -1249, -1229, -1600, -927, -419, 136, 
1190, -517, -1708, -336, 1449, -1112, -1180, -1254, -1610, -971, -473, 92, 
1122, -614, -1737, -253, 1429, -1176, -1098, -1254, -1605, -995, -531, 24, 
1063, -697, -1761, -183, 1412, -1229, -1019, -1210, -1556, -1000, -566, -14, 
1054, -736, -1790, -158, 1422, -1263, -951, -1156, -1517, -1000, -585, -53, 
1063, -756, -1820, -153, 1442, -1288, -893, -1112, -1507, -1015, -614, -107, 
1024, -790, -1815, -117, 1420, -1302, -844, -1083, -1473, -1015, -634, -141, 
980, -790, -1771, -95, 1376, -1281, -805, -1083, -1454, -1005, -658, -190, 
946, -790, -1737, -78, 1342, -1263, -771, -1083, -1444, -1034, -722, -268, 
902, -849, -1751, -26, 1327, -1300, -722, -1044, -1429, -1054, -766, -331, 
863, -936, -1800, 36, 1332, -1368, -653, -971, -1376, -1049, -800, -375, 
839, -966, -1805, 63, 1322, -1385, -600, -912, -1332, -1049, -844, -429, 
805, -956, -1761, 75, 1283, -1359, -551, -888, -1288, -1039, -873, -483, 
761, -966, -1727, 102, 1244, -1346, -502, -868, -1239, -1005, -873, -488, 
722, -951, -1673, 114, 1198, -1312, -453, -819, -1180, -971, -844, -478, 
722, -878, -1600, 78, 1161, -1239, -429, -751, -1098, -902, -780, -434, 
727, -780, -1507, 26, 1117, -1144, -400, -722, -1010, -814, -712, -385, 
692, -732, -1424, 19, 1058, -1078, -380, -697, -941, -741, -653, -351, 
644, -692, -1337, 24, 990, -1015, -380, -673, -888, -702, -624, -336, 
619, -624, -1244, 2, 932, -934, -375, -624, -814, -634, -585, -317, 
639, -551, -1190, -43, 915, -871, -370, -556, -727, -566, -546, -283, 
658, -502, -1161, -78, 910, -832, -356, -478, -629, -488, -483, -234, 
663, -429, -1093, -117, 878, -761, -341, -395, -541, -414, -405, -180, 
663, -356, -1019, -153, 841, -688, -317, -326, -478, -366, -375, -151, 
610, -317, -927, -146, 768, -622, -268, -278, -444, -351, -361, -146, 
566, -292, -858, -136, 712, -575, -209, -234, -409, -307, -326, -131, 
522, -244, -766, -139, 644, -505, -165, -204, -341, -248, -268, -117, 
473, -214, -688, -129, 580, -451, -151, -209, -317, -224, -258, -112, 
375, -180, -556, -97, 466, -368, -141, -219, -292, -209, -258, -112, 
268, -136, -405, -65, 336, -270, -97, -195, -229, -156, -214, -87, 
185, -117, -302, -34, 244, -209, -48, -175, -146, -97, -161, -48, 
107, -92, -200, -7, 153, -146, -4, -146, -78, -48, -122, -14, 
39, -63, -102, 12, 70, -82, 48, -92, -4, 14, -73, 19, 
-48, -58, -9, 53, -19, -34, 97, -63, 53, 63, -29, 39, 
-131, -48, 82, 90, -107, 17, 126, -48, 68, 87, -9, 43, 
-180, -9, 170, 95, -175, 80, 156, -48, 78, 97, 14, 48, 
-219, 0, 219, 109, -219, 109, 170, -53, 87, 107, 24, 58, 
-248, -29, 219, 139, -234, 95, 190, -48, 102, 136, 39, 73, 
-234, -19, 214, 126, -224, 97, 195, -43, 112, 141, 43, 73, 
-224, -14, 209, 119, -217, 97, 200, -43, 122, 146, 43, 73, 
-224, -14, 209, 119, -217, 97, 200, -43, 126, 151, 43, 73, 
-214, -9, 204, 112, -209, 97, 200, -43, 136, 151, 43, 68, 
-224, -9, 214, 117, -219, 102, 195, -39, 131, 141, 43, 63, 
-229, -9, 219, 119, -224, 104, 190, -39, 131, 146, 43, 63, 
-234, -9, 224, 122, -229, 107, 190, -48, 131, 151, 39, 68, 
-234, -9, 224, 122, -229, 107, 185, -48, 131, 151, 39, 68, 
-244, -9, 234, 126, -239, 112, 200, -58, 126, 141, 39, 58, 
-253, -4, 248, 129, -251, 122, 204, -58, 131, 146, 48, 68, 
-263, -4, 258, 134, -261, 126, 209, -58, 131, 151, 53, 73, 
-248, 9, 258, 119, -253, 134, 209, -53, 131, 156, 53, 73, 
-234, 14, 248, 109, -241, 131, 200, -53, 146, 161, 43, 73, 
-244, 14, 258, 114, -251, 136, 200, -48, 146, 161, 39, 68, 
-244, 19, 263, 112, -253, 141, 195, -48, 146, 161, 29, 48, 
-244, 24, 268, 109, -256, 146, 190, -53, 141, 161, 14, 43, 
-244, 24, 268, 109, -256, 146, 200, -48, 151, 165, 24, 53, 
-244, 29, 273, 107, -258, 151, 204, -43, 156, 165, 29, 53, 
-244, 29, 273, 107, -258, 151, 204, -39, 156, 175, 39, 53, 
-244, 39, 283, 102, -263, 161, 209, -34, 156, 175, 43, 53, 
-253, 39, 292, 107, -273, 165, 209, -34, 156, 185, 58, 48, 
-263, 29, 292, 117, -278, 161, 209, -24, 161, 180, 58, 58, 
-273, 29, 302, 122, -287, 165, 214, -24, 165, 175, 63, 58, 
-273, 39, 312, 117, -292, 175, 219, -24, 165, 170, 63, 58, 
-273, 39, 312, 117, -292, 175, 209, -34, 165, 161, 58, 48, 
-278, 43, 322, 117, -300, 183, 209, -34, 170, 165, 58, 43, 
-292, 53, 346, 119, -319, 200, 209, -29, 170, 165, 53, 43, 
-302, 53, 356, 124, -329, 204, 209, -29, 170, 165, 48, 43, 
-312, 34, 346, 139, -329, 190, 224, -29, 170, 165, 48, 43, 
-317, 34, 351, 141, -334, 192, 234, -19, 180, 175, 48, 43, 
-322, 39, 361, 141, -341, 200, 234, -19, 195, 180, 58, 43, 
-326, 48, 375, 139, -351, 212, 234, -14, 195, 185, 58, 39, 
-322, 63, 385, 129, -353, 224, 234, -4, 195, 175, 58, 39, 
-317, 63, 380, 126, -348, 222, 234, -4, 200, 175, 58, 43, 
-312, 63, 375, 124, -344, 219, 234, 0, 204, 180, 68, 48, 
-317, 63, 380, 126, -348, 222, 244, 0, 209, 180, 68, 48, 
-312, 78, 390, 117, -351, 234, 239, -9, 204, 185, 58, 39, 
-312, 87, 400, 112, -356, 244, 239, -4, 219, 190, 53, 34, 
-331, 97, 429, 117, -380, 263, 244, -4, 219, 190, 48, 34, 
-341, 112, 453, 114, -397, 283, 248, -4, 224, 195, 48, 29, 
-346, 107, 453, 119, -400, 280, 253, 9, 239, 200, 53, 39, 
-351, 102, 453, 124, -402, 278, 258, 14, 248, 204, 58, 39, 
-370, 97, 468, 136, -419, 283, 278, 24, 263, 209, 78, 39, 
-370, 97, 468, 136, -419, 283, 297, 29, 278, 214, 82, 39, 
-370, 92, 463, 139, -417, 278, 287, 24, 273, 214, 82, 39, 
-380, 92, 473, 143, -427, 283, 297, 24, 283, 224, 82, 39, 
-380, 87, 468, 146, -424, 278, 302, 29, 292, 229, 87, 34, 
-380, 87, 468, 146, -424, 278, 307, 34, 297, 234, 92, 29, 
-370, 107, 478, 131, -424, 292, 317, 39, 302, 248, 97, 29, 
-370, 117, 488, 126, -429, 302, 322, 58, 322, 258, 97, 34, 
-380, 131, 512, 124, -446, 322, 331, 63, 326, 263, 97, 34, 
-395, 146, 541, 124, -468, 344, 336, 63, 351, 273, 97, 34, 
-429, 136, 566, 146, -497, 351, 351, 73, 356, 283, 97, 34, 
-448, 126, 575, 161, -512, 351, 361, 78, 370, 287, 107, 29, 
-478, 122, 600, 178, -539, 361, 370, 87, 375, 287, 107, 34, 
-502, 117, 619, 192, -561, 368, 395, 102, 395, 302, 107, 43, 
-502, 126, 629, 187, -566, 378, 395, 122, 414, 312, 122, 34, 
-507, 126, 634, 190, -570, 380, 395, 131, 429, 326, 131, 34, 
-512, 136, 649, 187, -580, 392, 414, 136, 444, 336, 136, 34, 
-517, 161, 678, 178, -597, 419, 414, 151, 448, 346, 146, 34, 
-541, 175, 717, 183, -629, 446, 424, 151, 463, 346, 175, 24, 
-541, 175, 717, 183, -629, 446, 439, 161, 488, 351, 185, 34, 
-551, 170, 722, 190, -636, 446, 444, 180, 497, 366, 190, 34, 
-561, 170, 732, 195, -646, 451, 453, 195, 517, 361, 200, 34, 
-570, 180, 751, 195, -661, 466, 463, 200, 536, 366, 214, 34, 
-575, 190, 766, 192, -671, 478, 478, 224, 556, 380, 219, 43, 
-575, 204, 780, 185, -678, 492, 492, 258, 580, 400, 244, 48, 
-580, 219, 800, 180, -690, 509, 497, 278, 590, 409, 244, 48, 
-585, 214, 800, 185, -692, 507, 492, 278, 605, 409, 248, 43, 
-590, 224, 814, 183, -702, 519, 492, 292, 619, 419, 253, 53, 
-600, 214, 814, 192, -707, 514, 492, 317, 634, 439, 268, 53, 
-605, 214, 819, 195, -712, 517, 492, 326, 639, 448, 273, 58, 
-595, 224, 819, 185, -707, 522, 492, 331, 649, 448, 273, 48, 
-580, 244, 824, 168, -702, 534, 488, 346, 653, 458, 273, 58, 
-580, 258, 839, 161, -710, 549, 478, 370, 658, 458, 268, 58, 
-566, 263, 829, 151, -697, 546, 473, 380, 658, 458, 263, 63, 
-575, 253, 829, 161, -702, 541, 483, 400, 678, 473, 283, 87, 
-570, 263, 834, 153, -702, 549, 478, 409, 688, 488, 297, 97, 
-570, 273, 844, 148, -707, 558, 463, 419, 692, 492, 307, 107, 
-561, 273, 834, 143, -697, 553, 463, 429, 692, 497, 312, 107, 
-541, 268, 810, 136, -675, 539, 444, 434, 688, 488, 312, 107, 
-517, 268, 785, 124, -651, 527, 429, 424, 678, 488, 307, 112, 
-473, 253, 727, 109, -600, 490, 409, 424, 658, 488, 307, 117, 
-463, 253, 717, 104, -590, 485, 380, 414, 639, 483, 302, 122, 
-458, 263, 722, 97, -590, 492, 366, 409, 624, 473, 317, 136, 
-419, 268, 688, 75, -553, 478, 346, 405, 614, 458, 312, 141, 
-405, 263, 668, 70, -536, 466, 336, 385, 595, 444, 307, 141, 
-380, 248, 629, 65, -505, 439, 326, 370, 575, 434, 307, 141, 
-356, 253, 610, 51, -483, 431, 302, 356, 566, 439, 312, 156, 
-326, 253, 580, 36, -453, 417, 278, 341, 541, 424, 312, 161, 
-297, 248, 546, 24, -422, 397, 278, 322, 507, 395, 302, 156, 
-283, 244, 527, 19, -405, 385, 268, 307, 488, 370, 283, 156, 
-273, 244, 517, 14, -395, 380, 234, 292, 458, 356, 268, 165, 
-253, 224, 478, 14, -366, 351, 209, 263, 434, 351, 258, 165, 
-229, 204, 434, 12, -331, 319, 185, 239, 409, 336, 244, 146, 
-214, 204, 419, 4, -317, 312, 170, 214, 380, 322, 229, 141, 
-185, 180, 366, 2, -275, 273, 175, 209, 366, 312, 234, 151, 
-175, 146, 322, 14, -248, 234, 165, 190, 336, 297, 219, 151, 
-165, 141, 307, 12, -236, 224, 151, 165, 312, 273, 204, 146, 
-146, 131, 278, 7, -212, 204, 146, 151, 287, 258, 190, 131, 
-136, 126, 263, 4, -200, 195, 136, 117, 248, 229, 180, 126, 
-122, 97, 219, 12, -170, 158, 122, 92, 214, 185, 165, 117, 
-112, 97, 209, 7, -161, 153, 107, 68, 195, 165, 151, 112, 
-107, 87, 195, 9, -151, 141, 97, 43, 180, 156, 141, 107, 
-102, 78, 180, 12, -141, 129, 87, 39, 165, 146, 141, 97, 
-82, 68, 151, 7, -117, 109, 87, 29, 151, 136, 131, 87, 
-78, 63, 141, 7, -109, 102, 82, 19, 136, 131, 112, 92, 
-73, 63, 136, 4, -104, 100, 82, 9, 117, 122, 102, 87, 
-73, 53, 126, 9, -100, 90, 63, 0, 92, 112, 87, 73, 
-78, 39, 117, 19, -97, 78, 58, -24, 82, 97, 78, 68, 
-78, 29, 107, 24, -92, 68, 58, -39, 78, 87, 78, 68, 
-73, 19, 92, 26, -82, 56, 58, -53, 73, 73, 78, 68, 
-82, 19, 102, 31, -92, 61, 53, -68, 58, 48, 58, 48, 
-82, 19, 102, 31, -92, 61, 48, -73, 48, 34, 48, 39, 
-87, 29, 117, 29, -102, 73, 43, -78, 43, 24, 34, 34, 
-87, 39, 126, 24, -107, 82, 29, -78, 34, 24, 24, 29, 
-87, 19, 107, 34, -97, 63, 43, -82, 29, 19, 29, 39, 
-78, 9, 87, 34, -82, 48, 53, -82, 29, 19, 24, 39, 
-78, 0, 78, 39, -78, 39, 63, -82, 24, 19, 24, 39, 
-82, -9, 73, 46, -78, 31, 68, -82, 24, 19, 24, 34, 
-73, -9, 63, 41, -68, 26, 63, -82, 24, 24, 34, 34, 
-68, -4, 63, 36, -65, 29, 63, -82, 24, 24, 39, 39, 
-63, -4, 58, 34, -61, 26, 68, -82, 24, 24, 39, 43, 
-48, 4, 53, 21, -51, 29, 73, -82, 29, 19, 39, 48, 
-48, -24, 24, 36, -36, 0, 63, -82, 19, 14, 29, 43, 
-58, -29, 29, 43, -43, 0, 63, -78, 24, 24, 19, 39, 
-68, -29, 39, 48, -53, 4, 63, -78, 24, 19, 14, 34, 
-58, -34, 24, 46, -41, -4, 63, -78, 24, 9, 4, 29, 
-68, -24, 43, 46, -56, 9, 68, -68, 24, 9, 14, 39, 
-78, -24, 53, 51, -65, 14, 68, -68, 24, 9, 14, 39, 
-87, -24, 63, 56, -75, 19, 68, -68, 24, 4, 9, 48, 
-92, -24, 68, 58, -80, 21, 68, -68, 24, 4, 9, 48, 
-87, -9, 78, 48, -82, 34, 58, -63, 19, 9, 14, 34, 
-82, -9, 73, 46, -78, 31, 53, -63, 19, 9, 14, 34, 
-82, -4, 78, 43, -80, 36, 53, -63, 19, 4, 14, 34, 
-78, -4, 73, 41, -75, 34, 53, -63, 19, 0, 4, 29, 
-82, -9, 73, 46, -78, 31, 78, -39, 29, 9, 9, 43, 
-87, -9, 78, 48, -82, 34, 82, -34, 34, 14, 29, 48, 
-87, -9, 78, 48, -82, 34, 92, -24, 48, 24, 39, 53, 
-87, -9, 78, 48, -82, 34, 102, -19, 58, 34, 48, 58, 
-87, -14, 73, 51, -80, 29, 92, -34, 43, 19, 29, 53, 
-92, 0, 92, 46, -92, 46, 82, -39, 39, 14, 19, 48, 
-97, -4, 92, 51, -95, 43, 73, -43, 43, 14, 9, 43, 
-97, -19, 78, 58, -87, 29, 58, -48, 43, 19, 4, 34, 
-87, -19, 68, 53, -78, 24, 68, -34, 53, 19, 4, 43, 
-92, 0, 92, 46, -92, 46, 73, -29, 43, 9, 4, 43, 
-97, 0, 97, 48, -97, 48, 82, -19, 58, 19, 9, 53, 
-97, 0, 97, 48, -97, 48, 97, -9, 73, 34, 19, 58, 
-107, -4, 102, 56, -104, 48, 97, -9, 82, 34, 14, 58, 
-107, 14, 122, 46, -114, 68, 97, -9, 78, 34, 14, 58, 
-102, 19, 122, 41, -112, 70, 97, -9, 78, 39, 14, 63, 
-102, 14, 117, 43, -109, 65, 102, -4, 87, 39, 9, 68, 
-87, 14, 102, 36, -95, 58, 92, -9, 73, 39, -4, 63, 
-82, 14, 97, 34, -90, 56, 92, -4, 68, 39, -9, 58, 
-82, 19, 102, 31, -92, 61, 82, -4, 63, 34, -14, 58, 
-78, 29, 107, 24, -92, 68, 82, -4, 58, 24, -24, 58, 
-92, 29, 122, 31, -107, 75, 82, 9, 68, 39, -9, 53, 
-107, 19, 126, 43, -117, 73, 87, 9, 68, 39, -9, 58, 
-122, 4, 126, 58, -124, 65, 87, 9, 68, 39, -4, 58, 
-136, -14, 122, 75, -129, 53, 82, 19, 68, 39, 0, 68, 
-107, -14, 92, 61, -100, 39, 102, 14, 73, 53, 4, 68, 
-78, -19, 58, 48, -68, 19, 87, 0, 68, 39, 0, 58, 
-97, -19, 78, 58, -87, 29, 87, -9, 58, 29, -9, 48, 
-107, -19, 87, 63, -97, 34, 87, -9, 58, 29, -9, 48, 
-117, -19, 97, 68, -107, 39, 87, -9, 58, 29, -9, 48, 
-126, -19, 107, 73, -117, 43, 87, -9, 58, 29, -9, 48, 
-122, -4, 117, 63, -119, 56, 82, 0, 78, 39, -9, 63, 
-122, 4, 126, 58, -124, 65, 82, 4, 78, 43, -9, 68, 
-122, 9, 131, 56, -126, 70, 82, 9, 78, 43, -9, 73, 
-117, 24, 141, 46, -129, 82, 82, 14, 78, 48, 0, 73, 
-92, 43, 136, 24, -114, 90, 92, 14, 97, 58, 14, 87, 
-87, 68, 156, 9, -122, 112, 97, 14, 97, 68, 24, 97, 
-82, 87, 170, -2, -126, 129, 102, 14, 107, 82, 39, 102, 
-78, 97, 175, -9, -126, 136, 107, 14, 122, 92, 53, 112, 
-82, 78, 161, 2, -122, 119, 112, 4, 117, 92, 58, 102, 
-97, 82, 180, 7, -139, 131, 112, 4, 122, 97, 58, 107, 
-107, 82, 190, 12, -148, 136, 117, 4, 126, 92, 63, 117, 
-122, 68, 190, 26, -156, 129, 117, 4, 122, 87, 68, 117, 
-112, 82, 195, 14, -153, 139, 102, 0, 112, 92, 53, 112, 
-112, 78, 190, 17, -151, 134, 97, 0, 112, 92, 53, 112, 
-112, 82, 195, 14, -153, 139, 92, -4, 112, 92, 48, 112, 
-112, 97, 209, 7, -161, 153, 78, -9, 107, 92, 43, 107, 
-92, 112, 204, -9, -148, 158, 68, -9, 112, 82, 43, 117, 
-78, 112, 190, -17, -134, 151, 63, -4, 112, 73, 43, 117, 
-63, 112, 175, -24, -119, 143, 58, -4, 102, 73, 43, 117, 
-48, 117, 165, -34, -107, 141, 43, -4, 97, 63, 43, 117, 
-48, 102, 151, -26, -100, 126, 48, -4, 97, 73, 43, 122, 
-43, 92, 136, -24, -90, 114, 39, 0, 97, 73, 39, 122, 
-29, 78, 107, -24, -68, 92, 39, 9, 97, 68, 34, 117, 
-24, 53, 78, -14, -51, 65, 34, 14, 82, 63, 24, 117, 
-14, 58, 73, -21, -43, 65, 24, 14, 73, 58, 19, 126, 
-14, 48, 63, -17, -39, 56, 24, 9, 73, 53, 14, 117, 
-9, 34, 43, -12, -26, 39, 24, 9, 68, 53, 9, 112, 
-9, 19, 29, -4, -19, 24, 24, 14, 58, 39, -4, 107, 
-19, 0, 19, 9, -19, 9, 19, 4, 39, 14, -14, 82, 
-34, -19, 14, 26, -24, -2, 19, 4, 34, 9, -19, 78, 
-29, -29, 0, 29, -14, -14, 19, 0, 24, 0, -24, 73, 
-34, -34, 0, 34, -17, -17, 14, -9, 19, -4, -29, 63, 
-29, -24, 4, 26, -17, -9, 19, -9, 24, 4, -29, 68, 
-14, -14, 0, 14, -7, -7, 24, 0, 29, 9, -29, 73, 
-4, -4, 0, 4, -2, -2, 29, 14, 29, 14, -24, 82, 
0, 14, 14, -7, -7, 14, 34, 24, 29, 14, -24, 87, 
9, 9, 0, -9, 4, 4, 34, 24, 29, 14, -19, 82, 
0, -4, -4, 2, 2, -4, 43, 24, 29, 9, -19, 82, 
-4, -24, -19, 14, 7, -21, 48, 24, 29, 9, -19, 82, 
-14, -34, -19, 24, 2, -26, 53, 24, 29, 9, -24, 73, 
-24, -19, 4, 21, -14, -7, 58, 9, 24, -4, -29, 73, 
-34, -24, 9, 29, -21, -7, 53, 9, 19, -4, -34, 73, 
-58, -24, 34, 41, -46, 4, 68, 9, 14, -4, -39, 68, 
-58, -19, 39, 39, -48, 9, 68, 19, 14, -4, -43, 68, 
-73, -24, 48, 48, -61, 12, 73, 9, 24, -4, -43, 68, 
-73, -24, 48, 48, -61, 12, 82, 9, 24, -4, -43, 68, 
-78, -24, 53, 51, -65, 14, 82, 9, 24, -4, -48, 68, 
-78, -24, 53, 51, -65, 14, 82, 9, 24, -4, -53, 68, 
-78, -43, 34, 61, -56, -4, 92, 9, 24, -4, -63, 63, 
-82, -43, 39, 63, -61, -2, 92, 9, 19, -4, -68, 48, 
-82, -43, 39, 63, -61, -2, 97, 9, 14, -9, -68, 43, 
-82, -43, 39, 63, -61, -2, 97, 9, 14, -9, -63, 39, 
-92, -43, 48, 68, -70, 2, 112, 24, 24, 0, -48, 53, 
-102, -48, 53, 75, -78, 2, 112, 29, 29, 0, -43, 53, 
-102, -48, 53, 75, -78, 2, 112, 34, 34, 0, -43, 53, 
-102, -53, 48, 78, -75, -2, 112, 39, 39, 0, -39, 53, 
-97, -63, 34, 80, -65, -14, 117, 39, 34, -9, -39, 43, 
-102, -58, 43, 80, -73, -7, 117, 39, 29, -9, -39, 43, 
-107, -53, 53, 80, -80, 0, 117, 34, 29, -9, -39, 43, 
-122, -53, 68, 87, -95, 7, 117, 34, 29, -9, -39, 39, 
-131, -63, 68, 97, -100, 2, 107, 24, 34, -9, -53, 48, 
-122, -63, 58, 92, -90, -2, 107, 24, 34, -9, -53, 53, 
-122, -58, 63, 90, -92, 2, 107, 24, 34, -9, -53, 53, 
-122, -58, 63, 90, -92, 2, 107, 24, 34, -14, -53, 53, 
-107, -58, 48, 82, -78, -4, 112, 24, 39, -4, -68, 43, 
-78, -29, 48, 53, -63, 9, 122, 48, 43, -4, -68, 53, 
-87, -53, 34, 70, -61, -9, 126, 63, 48, -4, -73, 53, 
-126, -73, 53, 100, -90, -9, 131, 82, 58, 4, -73, 53, 
-126, -58, 68, 92, -97, 4, 146, 117, 87, 19, -53, 63, 
-78, -39, 39, 58, -58, 0, 156, 151, 117, 29, -43, 68, 
-43, -29, 14, 36, -29, -7, 156, 170, 117, 34, -34, 73, 
-24, -39, -14, 31, -4, -26, 136, 190, 117, 34, -24, 82, 
-9, -53, -43, 31, 17, -48, 107, 214, 131, 43, -14, 78, 
9, -39, -48, 14, 29, -43, 63, 239, 136, 53, -14, 87, 
78, 14, -63, -46, 70, -24, 19, 278, 141, 73, 9, 122, 
180, 34, -146, -107, 163, -56, -43, 317, 131, 92, 48, 165, 
244, 24, -219, -134, 231, -97, -122, 331, 87, 92, 53, 195, 
292, 43, -248, -168, 270, -102, -209, 331, 58, 87, 63, 209, 
351, 87, -263, -219, 307, -87, -283, 326, 39, 92, 78, 229, 
419, 146, -273, -283, 346, -63, -356, 283, 9, 92, 97, 273, 
478, 170, -307, -324, 392, -68, -439, 204, -58, 68, 87, 292, 
531, 175, -356, -353, 444, -90, -546, 112, -180, 14, 78, 317, 
570, 146, -424, -358, 497, -139, -624, 34, -312, -53, 68, 331, 
570, 82, -488, -326, 529, -202, -688, -39, -444, -112, 53, 331, 
595, 58, -536, -326, 566, -239, -746, -146, -580, -209, 4, 322, 
668, 39, -629, -353, 649, -295, -854, -258, -736, -302, -43, 322, 
722, -4, -727, -358, 724, -366, -990, -370, -854, -375, -73, 341, 
785, 0, -785, -392, 785, -392, -1098, -448, -922, -409, -63, 380, 
932, 58, -873, -495, 902, -407, -1166, -483, -980, -429, -53, 419, 
1073, 78, -995, -575, 1034, -458, -1239, -527, -1034, -478, -68, 429, 
1127, 0, -1127, -563, 1127, -563, -1337, -614, -1112, -536, -107, 424, 
1166, -78, -1244, -544, 1205, -661, -1395, -697, -1185, -595, -122, 429, 
1254, -107, -1361, -573, 1307, -734, -1381, -727, -1220, -619, -126, 429, 
1283, -151, -1434, -566, 1359, -793, -1361, -746, -1254, -653, -161, 409, 
1224, -234, -1459, -495, 1342, -846, -1351, -785, -1307, -702, -209, 366, 
1224, -307, -1532, -458, 1378, -919, -1342, -824, -1366, -766, -268, 312, 
1307, -346, -1654, -480, 1481, -1000, -1322, -883, -1395, -829, -326, 263, 
1342, -409, -1751, -466, 1546, -1080, -1288, -946, -1434, -897, -400, 214, 
1298, -497, -1795, -400, 1546, -1146, -1229, -990, -1473, -971, -473, 151, 
1220, -595, -1815, -312, 1517, -1205, -1137, -1019, -1478, -1015, -531, 82, 
1141, -649, -1790, -246, 1466, -1220, -1058, -1044, -1468, -1039, -585, 24, 
1132, -678, -1810, -226, 1471, -1244, -1010, -1029, -1449, -1058, -634, -24, 
1161, -688, -1849, -236, 1505, -1268, -951, -985, -1410, -1054, -644, -39, 
1151, -692, -1844, -229, 1498, -1268, -893, -966, -1376, -1034, -653, -73, 
1098, -702, -1800, -197, 1449, -1251, -854, -1005, -1376, -1073, -697, -141, 
1044, -761, -1805, -141, 1424, -1283, -800, -1005, -1385, -1102, -761, -209, 
1010, -829, -1839, -90, 1424, -1334, -712, -956, -1351, -1112, -795, -263, 
971, -849, -1820, -61, 1395, -1334, -673, -932, -1337, -1127, -829, -326, 
936, -878, -1815, -29, 1376, -1346, -649, -902, -1332, -1146, -883, -400, 
893, -966, -1859, 36, 1376, -1412, -580, -829, -1278, -1127, -902, -424, 
868, -976, -1844, 53, 1356, -1410, -512, -761, -1210, -1102, -893, -439, 
858, -902, -1761, 21, 1310, -1332, -492, -751, -1161, -1078, -893, -448, 
829, -849, -1678, 9, 1254, -1263, -478, -722, -1098, -1029, -868, -434, 
775, -810, -1586, 17, 1180, -1198, -429, -683, -1010, -941, -810, -395, 
732, -732, -1464, 0, 1098, -1098, -390, -649, -941, -868, -741, -361, 
722, -663, -1385, -29, 1054, -1024, -370, -614, -888, -829, -712, -346, 
707, -595, -1302, -56, 1005, -949, -366, -585, -824, -790, -673, -336, 
697, -531, -1229, -82, 963, -880, -341, -507, -746, -722, -614, -302, 
658, -483, -1141, -87, 900, -812, -326, -419, -649, -634, -551, -253, 
673, -429, -1102, -122, 888, -766, -331, -356, -580, -580, -522, -219, 
712, -366, -1078, -173, 895, -722, -317, -297, -527, -561, -502, -200, 
658, -336, -995, -161, 827, -666, -287, -248, -492, -527, -507, -204, 
566, -322, -888, -122, 727, -605, -248, -204, -448, -492, -492, -209, 
502, -283, -785, -109, 644, -534, -204, -175, -390, -453, -453, -195, 
434, -244, -678, -95, 556, -461, -161, -151, -346, -409, -424, -170, 
356, -239, -595, -58, 475, -417, -122, -141, -302, -375, -405, -170, 
248, -214, -463, -17, 356, -339, -87, -117, -248, -322, -361, -165, 
165, -165, -331, 0, 248, -248, -48, -97, -195, -263, -307, -117, 
107, -112, -219, 2, 163, -165, -4, -78, -117, -224, -248, -82, 
58, -73, -131, 7, 95, -102, 29, -43, -53, -170, -209, -58, 
-9, -48, -39, 29, 14, -43, 68, -14, -4, -131, -165, -39, 
-73, -39, 34, 56, -53, -2, 117, 9, 39, -87, -136, -24, 
-122, -9, 112, 65, -117, 51, 156, 29, 78, -58, -112, 0, 
-161, -9, 151, 85, -156, 70, 170, 24, 87, -68, -102, 9, 
-180, 0, 180, 90, -180, 90, 200, 29, 82, -58, -78, 14, 
-195, 9, 204, 92, -200, 107, 214, 43, 92, -39, -58, 14, 
-195, 14, 209, 90, -202, 112, 219, 43, 102, -29, -53, 14, 
-204, 14, 219, 95, -212, 117, 219, 43, 107, -19, -48, 14, 
-204, 19, 224, 92, -214, 122, 219, 43, 117, -14, -43, 9, 
-214, 4, 219, 104, -217, 112, 204, 29, 122, -19, -63, 4, 
-229, 0, 229, 114, -229, 114, 200, 29, 122, -19, -73, 4, 
-244, -4, 239, 124, -241, 117, 200, 19, 122, -19, -87, 9, 
-253, -9, 244, 131, -248, 117, 195, 19, 122, -24, -97, 9, 
-248, 0, 248, 124, -248, 124, 204, 24, 122, -14, -107, 9, 
-253, 4, 258, 124, -256, 131, 214, 29, 131, -9, -97, 19, 
-258, 4, 263, 126, -261, 134, 224, 34, 136, -4, -92, 24, 
-239, 19, 258, 109, -248, 139, 229, 43, 141, 0, -92, 24, 
-244, 14, 258, 114, -251, 136, 219, 39, 146, 4, -97, 24, 
-263, 4, 268, 129, -265, 136, 219, 39, 146, 4, -97, 19, 
-273, 0, 273, 136, -273, 136, 214, 34, 146, 4, -102, 0, 
-283, -4, 278, 143, -280, 136, 209, 24, 141, 4, -112, -4, 
-283, -14, 268, 148, -275, 126, 209, 14, 131, -9, -107, 4, 
-283, -9, 273, 146, -278, 131, 214, 14, 136, -9, -107, 4, 
-283, -9, 273, 146, -278, 131, 214, 14, 136, 0, -102, 4, 
-283, 0, 283, 141, -283, 141, 219, 14, 136, 0, -102, 4, 
-273, -9, 263, 141, -268, 126, 219, 24, 146, 24, -87, 9, 
-283, -19, 263, 151, -273, 122, 219, 34, 151, 24, -78, 19, 
-292, -19, 273, 156, -283, 126, 224, 34, 156, 24, -63, 19, 
-292, -9, 283, 151, -287, 136, 229, 34, 156, 24, -53, 19, 
-273, 4, 278, 134, -275, 141, 239, 34, 175, 24, -58, 19, 
-268, 14, 283, 126, -275, 148, 239, 34, 180, 29, -58, 14, 
-273, 29, 302, 122, -287, 165, 239, 39, 180, 29, -63, 14, 
-273, 34, 307, 119, -290, 170, 239, 39, 180, 29, -68, 14, 
-278, 24, 302, 126, -290, 163, 253, 39, 180, 39, -68, 19, 
-287, 24, 312, 131, -300, 168, 263, 48, 190, 48, -68, 24, 
-297, 29, 326, 134, -312, 178, 263, 48, 204, 53, -58, 29, 
-307, 39, 346, 134, -326, 192, 263, 53, 204, 58, -58, 29, 
-312, 48, 361, 131, -336, 204, 273, 53, 214, 58, -58, 19, 
-317, 43, 361, 136, -339, 202, 273, 53, 219, 58, -58, 24, 
-322, 39, 361, 141, -341, 200, 273, 58, 224, 63, -48, 29, 
-336, 34, 370, 151, -353, 202, 283, 58, 229, 63, -48, 29, 
-341, 34, 375, 153, -358, 204, 283, 48, 229, 63, -48, 29, 
-341, 39, 380, 151, -361, 209, 278, 53, 239, 63, -53, 24, 
-361, 43, 405, 158, -383, 224, 278, 53, 234, 58, -58, 24, 
-370, 53, 424, 158, -397, 239, 278, 53, 234, 58, -58, 19, 
-366, 48, 414, 158, -390, 231, 287, 53, 229, 53, -63, 9, 
-370, 43, 414, 163, -392, 229, 287, 53, 239, 58, -68, 9, 
-390, 39, 429, 175, -409, 234, 302, 58, 253, 63, -58, 9, 
-390, 39, 429, 175, -409, 234, 317, 58, 268, 68, -63, 9, 
-390, 48, 439, 170, -414, 244, 317, 63, 273, 73, -58, 19, 
-400, 53, 453, 173, -427, 253, 326, 63, 283, 87, -53, 19, 
-400, 53, 453, 173, -427, 253, 331, 68, 292, 97, -43, 14, 
-400, 58, 458, 170, -429, 258, 336, 73, 297, 107, -34, 9, 
-405, 78, 483, 163, -444, 280, 361, 87, 312, 112, -19, 14, 
-409, 87, 497, 161, -453, 292, 370, 107, 331, 122, -19, 24, 
-424, 102, 527, 161, -475, 314, 385, 112, 336, 126, -19, 29, 
-444, 117, 561, 163, -502, 339, 395, 112, 361, 136, -19, 34, 
-448, 112, 561, 168, -505, 336, 395, 112, 366, 146, -14, 29, 
-458, 107, 566, 175, -512, 336, 400, 117, 380, 151, -9, 19, 
-478, 107, 585, 185, -531, 346, 405, 126, 385, 151, -14, 19, 
-492, 107, 600, 192, -546, 353, 424, 141, 405, 165, -19, 24, 
-512, 102, 614, 204, -563, 358, 434, 146, 414, 170, -19, 24, 
-536, 97, 634, 219, -585, 366, 434, 151, 429, 180, -24, 24, 
-561, 102, 663, 229, -612, 383, 453, 151, 444, 185, -34, 24, 
-585, 122, 707, 231, -646, 414, 453, 161, 448, 190, -39, 24, 
-595, 151, 746, 222, -671, 448, 463, 161, 463, 204, -14, 14, 
-590, 156, 746, 217, -668, 451, 478, 170, 488, 214, 0, 24, 
-595, 156, 751, 219, -673, 453, 483, 190, 497, 234, 9, 24, 
-600, 161, 761, 219, -680, 461, 492, 204, 517, 234, 24, 24, 
-590, 170, 761, 209, -675, 466, 488, 209, 522, 239, 19, 34, 
-595, 180, 775, 207, -685, 478, 497, 224, 536, 253, 24, 43, 
-595, 195, 790, 200, -692, 492, 507, 248, 556, 273, 48, 48, 
-600, 209, 810, 195, -705, 509, 507, 258, 561, 283, 48, 48, 
-605, 204, 810, 200, -707, 507, 512, 258, 580, 292, 63, 48, 
-610, 224, 834, 192, -722, 529, 512, 273, 600, 302, 68, 63, 
-619, 224, 844, 197, -732, 534, 512, 297, 619, 322, 82, 68, 
-624, 234, 858, 195, -741, 546, 512, 307, 629, 331, 87, 78, 
-619, 229, 849, 195, -734, 539, 502, 326, 653, 351, 102, 87, 
-610, 244, 854, 183, -732, 549, 497, 346, 663, 370, 117, 107, 
-614, 253, 868, 180, -741, 561, 488, 375, 673, 380, 126, 117, 
-605, 253, 858, 175, -732, 556, 483, 390, 678, 390, 136, 131, 
-585, 258, 844, 163, -714, 551, 473, 390, 678, 385, 141, 141, 
-570, 273, 844, 148, -707, 558, 458, 390, 678, 390, 151, 146, 
-561, 287, 849, 136, -705, 568, 434, 390, 673, 385, 156, 151, 
-541, 292, 834, 124, -688, 563, 424, 390, 663, 380, 156, 146, 
-527, 307, 834, 109, -680, 570, 414, 400, 668, 390, 165, 165, 
-507, 307, 814, 100, -661, 561, 400, 395, 658, 390, 170, 170, 
-468, 292, 761, 87, -614, 527, 380, 400, 639, 390, 180, 175, 
-463, 292, 756, 85, -610, 524, 351, 395, 619, 385, 185, 180, 
-439, 292, 732, 73, -585, 512, 326, 375, 595, 380, 180, 185, 
-390, 287, 678, 51, -534, 483, 297, 366, 575, 361, 165, 190, 
-366, 273, 639, 46, -502, 456, 278, 341, 546, 341, 151, 190, 
-331, 248, 580, 41, -456, 414, 258, 322, 517, 326, 141, 190, 
-331, 234, 566, 48, -448, 400, 244, 307, 497, 317, 136, 200, 
-307, 224, 531, 41, -419, 378, 219, 292, 473, 297, 136, 200, 
-283, 209, 492, 36, -387, 351, 219, 273, 439, 263, 126, 190, 
-273, 195, 468, 39, -370, 331, 209, 258, 419, 234, 107, 185, 
-244, 190, 434, 26, -339, 312, 190, 239, 390, 219, 92, 185, 
-224, 175, 400, 24, -312, 287, 170, 214, 366, 214, 82, 185, 
-200, 161, 361, 19, -280, 261, 151, 195, 341, 200, 68, 165, 
-185, 165, 351, 9, -268, 258, 141, 175, 312, 185, 53, 161, 
-165, 156, 322, 4, -244, 239, 126, 151, 278, 165, 43, 161, 
-156, 126, 283, 14, -219, 204, 117, 131, 248, 141, 24, 161, 
-146, 126, 273, 9, -209, 200, 102, 107, 224, 107, 4, 156, 
-126, 122, 248, 2, -187, 185, 97, 92, 200, 82, -14, 141, 
-131, 102, 234, 14, -183, 168, 102, 92, 175, 78, -9, 136, 
-122, 68, 190, 26, -156, 129, 102, 82, 156, 48, -19, 126, 
-117, 63, 180, 26, -148, 122, 102, 73, 151, 43, -29, 122, 
-117, 48, 165, 34, -141, 107, 107, 63, 151, 48, -34, 117, 
-107, 29, 136, 39, -122, 82, 92, 43, 122, 14, -53, 112, 
-92, 19, 112, 36, -102, 65, 87, 29, 102, 0, -73, 97, 
-92, 14, 107, 39, -100, 61, 78, 14, 82, -9, -102, 97, 
-92, 14, 107, 39, -100, 61, 73, 0, 58, -24, -122, 87, 
-87, 24, 112, 31, -100, 68, 63, -9, 48, -29, -122, 82, 
-87, 19, 107, 34, -97, 63, 58, -24, 43, -39, -126, 78, 
-82, 19, 102, 31, -92, 61, 58, -29, 43, -43, -122, 78, 
-73, 19, 92, 26, -82, 56, 58, -34, 43, -53, -117, 78, 
-82, -9, 73, 46, -78, 31, 58, -29, 34, -63, -131, 58, 
-92, -29, 63, 61, -78, 17, 58, -34, 29, -73, -136, 48, 
-107, -39, 68, 73, -87, 14, 58, -39, 29, -78, -146, 43, 
-117, -48, 68, 82, -92, 9, 48, -39, 24, -73, -151, 39, 
-102, -39, 63, 70, -82, 12, 58, -48, 14, -73, -151, 43, 
-87, -39, 48, 63, -68, 4, 63, -53, 9, -78, -151, 48, 
-82, -39, 43, 61, -63, 2, 68, -58, 0, -82, -146, 53, 
-82, -39, 43, 61, -63, 2, 68, -63, -4, -87, -141, 53, 
-78, -29, 48, 53, -63, 9, 63, -53, 0, -82, -151, 48, 
-78, -14, 63, 46, -70, 24, 63, -53, 4, -82, -146, 48, 
-78, -4, 73, 41, -75, 34, 68, -53, 9, -82, -146, 48, 
-68, 14, 82, 26, -75, 48, 73, -53, 19, -87, -146, 48, 
-82, -9, 73, 46, -78, 31, 73, -53, 19, -87, -141, 58, 
-97, -9, 87, 53, -92, 39, 73, -48, 24, -73, -136, 58, 
-112, -4, 107, 58, -109, 51, 73, -48, 24, -73, -126, 58, 
-107, -4, 102, 56, -104, 48, 73, -48, 24, -78, -122, 58, 
-107, -24, 82, 65, -95, 29, 87, -48, 24, -78, -122, 48, 
-107, -34, 73, 70, -90, 19, 87, -48, 24, -78, -122, 48, 
-107, -43, 63, 75, -85, 9, 87, -48, 24, -82, -126, 58, 
-102, -53, 48, 78, -75, -2, 87, -48, 24, -82, -126, 58, 
-112, -39, 73, 75, -92, 17, 87, -34, 29, -78, -122, 53, 
-112, -39, 73, 75, -92, 17, 82, -34, 29, -78, -122, 53, 
-117, -34, 82, 75, -100, 24, 82, -34, 29, -82, -122, 53, 
-117, -34, 82, 75, -100, 24, 82, -34, 29, -87, -131, 48, 
-107, -29, 78, 68, -92, 24, 82, -34, 24, -97, -141, 39, 
-107, -29, 78, 68, -92, 24, 82, -34, 24, -92, -126, 39, 
-102, -29, 73, 65, -87, 21, 87, -29, 34, -82, -122, 39, 
-97, -29, 68, 63, -82, 19, 92, -29, 39, -73, -117, 39, 
-97, 0, 97, 48, -97, 48, 92, -19, 48, -63, -97, 63, 
-97, 9, 107, 43, -102, 58, 97, 0, 58, -48, -97, 68, 
-112, 0, 112, 56, -112, 56, 87, -4, 48, -53, -102, 63, 
-117, 0, 117, 58, -117, 58, 87, -9, 48, -58, -107, 58, 
-122, 0, 122, 61, -122, 61, 87, -14, 48, -63, -112, 53, 
-126, 0, 126, 63, -126, 63, 87, -19, 48, -68, -117, 48, 
-122, 19, 141, 51, -131, 80, 92, -19, 68, -53, -107, 53, 
-122, 24, 146, 48, -134, 85, 92, -14, 68, -53, -107, 58, 
-122, 24, 146, 48, -134, 85, 92, -9, 68, -58, -107, 63, 
-117, 34, 151, 41, -134, 92, 92, -4, 68, -58, -97, 63, 
-97, 34, 131, 31, -114, 82, 97, -14, 78, -43, -82, 82, 
-97, 48, 146, 24, -122, 97, 97, -14, 78, -39, -82, 87, 
-97, 58, 156, 19, -126, 107, 97, -14, 87, -29, -78, 87, 
-97, 58, 156, 19, -126, 107, 97, -14, 102, -24, -73, 92, 
-82, 63, 146, 9, -114, 104, 112, -14, 92, -29, -82, 82, 
-78, 82, 161, -2, -119, 122, 112, -14, 102, -19, -87, 87, 
-68, 97, 165, -14, -117, 131, 117, -14, 112, -19, -87, 97, 
-63, 97, 161, -17, -112, 129, 117, -14, 112, -19, -87, 97, 
-82, 92, 175, -4, -129, 134, 112, 0, 117, -9, -78, 102, 
-92, 78, 170, 7, -131, 124, 107, 0, 122, -4, -63, 112, 
-102, 73, 175, 14, -139, 124, 102, -4, 126, 0, -53, 122, 
-112, 78, 190, 17, -151, 134, 87, -9, 126, 4, -43, 126, 
-97, 87, 185, 4, -141, 136, 73, 0, 112, -4, -53, 112, 
-87, 82, 170, 2, -129, 126, 63, 4, 112, -14, -63, 107, 
-78, 78, 156, 0, -117, 117, 53, 4, 102, -14, -73, 102, 
-68, 78, 146, -4, -107, 112, 34, 4, 97, -24, -82, 97, 
-63, 78, 141, -7, -102, 109, 34, 14, 97, -24, -78, 92, 
-53, 73, 126, -9, -90, 100, 29, 19, 97, -24, -78, 92, 
-34, 63, 97, -14, -65, 80, 34, 29, 97, -29, -78, 87, 
-24, 43, 68, -9, -46, 56, 34, 34, 82, -34, -82, 87, 
-34, 29, 63, 2, -48, 46, 34, 24, 63, -43, -87, 87, 
-43, 9, 53, 17, -48, 31, 34, 19, 63, -53, -92, 78, 
-48, -14, 34, 31, -41, 9, 34, 19, 58, -58, -97, 73, 
-58, -39, 19, 48, -39, -9, 34, 24, 48, -78, -112, 68, 
-48, -24, 24, 36, -36, 0, 34, 29, 43, -78, -122, 48, 
-53, -29, 24, 41, -39, -2, 39, 34, 43, -78, -126, 48, 
-39, -24, 14, 31, -26, -4, 43, 34, 39, -82, -131, 48, 
-34, -14, 19, 24, -26, 2, 43, 29, 39, -82, -136, 43, 
-43, -24, 19, 34, -31, -2, 34, 19, 39, -78, -136, 43, 
-34, -24, 9, 29, -21, -7, 34, 19, 39, -78, -136, 43, 
-29, -24, 4, 26, -17, -9, 34, 24, 34, -78, -131, 48, 
-29, -14, 14, 21, -21, 0, 34, 24, 29, -82, -131, 48, 
-9, 0, 9, 4, -9, 4, 39, 34, 34, -82, -126, 58, 
-19, -4, 14, 12, -17, 4, 53, 34, 39, -87, -117, 63, 
-24, -14, 9, 19, -17, -2, 63, 34, 43, -87, -107, 68, 
-34, -14, 19, 24, -26, 2, 73, 34, 48, -87, -102, 63, 
-63, -19, 43, 41, -53, 12, 82, 29, 34, -102, -112, 68, 
-73, -34, 39, 53, -56, 2, 82, 29, 29, -102, -112, 63, 
-97, -43, 53, 70, -75, 4, 102, 29, 24, -102, -112, 53, 
-97, -48, 48, 73, -73, 0, 107, 39, 24, -102, -112, 48, 
-107, -43, 63, 75, -85, 9, 102, 34, 29, -92, -107, 48, 
-112, -43, 68, 78, -90, 12, 112, 29, 34, -92, -102, 48, 
-122, -43, 78, 82, -100, 17, 112, 24, 39, -92, -102, 48, 
-126, -43, 82, 85, -104, 19, 112, 19, 43, -92, -102, 48, 
-122, -58, 63, 90, -92, 2, 112, 19, 43, -112, -112, 58, 
-122, -63, 58, 92, -90, -2, 112, 19, 39, -112, -117, 48, 
-117, -68, 48, 92, -82, -9, 117, 19, 34, -117, -117, 48, 
-112, -73, 39, 92, -75, -17, 117, 19, 34, -117, -112, 48, 
-102, -58, 43, 80, -73, -7, 112, 19, 29, -117, -122, 39, 
-112, -58, 53, 85, -82, -2, 112, 19, 29, -117, -122, 34, 
-112, -53, 58, 82, -85, 2, 112, 19, 29, -117, -126, 29, 
-112, -53, 58, 82, -85, 2, 112, 19, 29, -117, -126, 24, 
-102, -53, 48, 78, -75, -2, 117, 29, 29, -107, -122, 29, 
-102, -48, 53, 75, -78, 2, 117, 29, 29, -107, -117, 34, 
-102, -43, 58, 73, -80, 7, 117, 24, 34, -107, -112, 39, 
-112, -43, 68, 78, -90, 12, 117, 24, 39, -107, -107, 39, 
-107, -43, 63, 75, -85, 9, 117, 34, 39, -117, -122, 43, 
-92, -43, 48, 68, -70, 2, 117, 34, 34, -117, -122, 53, 
-87, -39, 48, 63, -68, 4, 117, 34, 29, -117, -122, 58, 
-82, -39, 43, 61, -63, 2, 117, 34, 24, -122, -122, 63, 
-78, -29, 48, 53, -63, 9, 131, 43, 48, -112, -97, 53, 
-97, -39, 58, 68, -78, 9, 131, 58, 53, -112, -87, 53, 
-136, -63, 73, 100, -104, 4, 136, 73, 58, -112, -92, 34, 
-136, -73, 63, 104, -100, -4, 141, 92, 78, -102, -92, 24, 
-117, -58, 58, 87, -87, 0, 156, 117, 97, -87, -102, 34, 
-97, -48, 48, 73, -73, 0, 156, 151, 126, -68, -82, 48, 
-82, -48, 34, 65, -58, -7, 156, 190, 136, -63, -73, 82, 
-43, -68, -24, 56, -9, -46, 136, 219, 126, -63, -63, 82, 
19, -43, -63, 12, 41, -53, 97, 234, 112, -73, -63, 78, 
97, -19, -117, -39, 107, -68, 34, 258, 97, -73, -63, 97, 
165, -4, -170, -80, 168, -87, -29, 297, 82, -63, -39, 122, 
229, 14, -214, -122, 222, -100, -92, 336, 63, -53, -9, 146, 
292, 53, -239, -173, 265, -92, -161, 370, 39, -53, 14, 165, 
351, 73, -278, -212, 314, -102, -239, 361, 19, -48, 24, 190, 
390, 87, -302, -239, 346, -107, -312, 336, -9, -43, 48, 229, 
429, 107, -322, -268, 375, -107, -405, 273, -58, -53, 48, 273, 
488, 112, -375, -300, 431, -131, -507, 195, -156, -87, 48, 302, 
580, 126, -453, -353, 517, -163, -605, 122, -268, -141, 39, 336, 
649, 165, -483, -407, 566, -158, -663, 34, -390, -190, 19, 351, 
678, 161, -517, -419, 597, -178, -736, -87, -522, -258, -14, 341, 
702, 97, -605, -400, 653, -253, -834, -234, -688, -356, -43, 322, 
766, 87, -678, -427, 722, -295, -971, -356, -824, -429, -53, 341, 
858, 122, -736, -490, 797, -307, -1088, -448, -893, -463, -24, 400, 
912, 117, -795, -514, 854, -339, -1185, -517, -961, -507, -14, 429, 
980, 78, -902, -529, 941, -412, -1273, -570, -1039, -566, -43, 439, 
1093, 78, -1015, -585, 1054, -468, -1356, -634, -1093, -605, -58, 458, 
1185, 58, -1127, -622, 1156, -534, -1415, -702, -1141, -634, -87, 473, 
1234, 9, -1224, -622, 1229, -607, -1454, -785, -1195, -692, -131, 448, 
1283, -39, -1322, -622, 1302, -680, -1468, -834, -1259, -756, -185, 419, 
1322, -82, -1405, -619, 1363, -744, -1439, -873, -1312, -810, -229, 380, 
1332, -156, -1488, -588, 1410, -822, -1420, -902, -1376, -888, -287, 326, 
1351, -287, -1639, -531, 1495, -963, -1390, -951, -1434, -951, -336, 292, 
1356, -424, -1781, -466, 1568, -1102, -1342, -1010, -1473, -1024, -385, 244, 
1342, -507, -1849, -417, 1595, -1178, -1278, -1063, -1512, -1093, -458, 165, 
1288, -575, -1864, -356, 1576, -1220, -1190, -1088, -1532, -1166, -541, 82, 
1239, -634, -1873, -302, 1556, -1254, -1117, -1098, -1517, -1190, -600, 14, 
1220, -658, -1878, -280, 1549, -1268, -1049, -1083, -1498, -1205, -644, -24, 
1200, -668, -1869, -265, 1534, -1268, -980, -1029, -1459, -1215, -683, -63, 
1171, -707, -1878, -231, 1525, -1293, -941, -1005, -1429, -1210, -712, -97, 
1151, -771, -1922, -190, 1537, -1346, -902, -1024, -1415, -1210, -732, -131, 
1117, -819, -1937, -148, 1527, -1378, -844, -1024, -1405, -1220, -775, -180, 
1054, -868, -1922, -92, 1488, -1395, -780, -1005, -1395, -1239, -819, -248, 
990, -897, -1888, -46, 1439, -1393, -732, -976, -1390, -1268, -854, -322, 
932, -917, -1849, -7, 1390, -1383, -683, -941, -1376, -1293, -897, -385, 
897, -946, -1844, 24, 1371, -1395, -610, -863, -1332, -1302, -922, -439, 
893, -936, -1830, 21, 1361, -1383, -531, -790, -1278, -1273, -932, -463, 
907, -897, -1805, -4, 1356, -1351, -502, -751, -1220, -1239, -932, -478, 
897, -844, -1742, -26, 1320, -1293, -473, -712, -1151, -1176, -902, -458, 
868, -780, -1649, -43, 1259, -1215, -439, -673, -1068, -1098, -849, -424, 
844, -732, -1576, -56, 1210, -1154, -439, -673, -1000, -1029, -810, -405, 
819, -673, -1493, -73, 1156, -1083, -419, -658, -932, -966, -761, -390, 
780, -595, -1376, -92, 1078, -985, -400, -614, -858, -897, -692, -356, 
756, -497, -1254, -129, 1005, -875, -395, -556, -785, -858, -653, -336, 
727, -444, -1171, -141, 949, -807, -390, -488, -707, -810, -595, -302, 
707, -414, -1122, -146, 915, -768, -356, -380, -619, -751, -551, -263, 
722, -390, -1112, -165, 917, -751, -322, -297, -561, -688, -512, -229, 
692, -366, -1058, -163, 875, -712, -287, -239, -517, -668, -502, -219, 
610, -326, -936, -141, 773, -631, -258, -200, -483, -634, -488, -214, 
517, -302, -819, -107, 668, -561, -219, -175, -419, -570, -434, -190, 
453, -253, -707, -100, 580, -480, -185, -156, -351, -502, -375, -146, 
385, -204, -590, -90, 488, -397, -141, -141, -307, -448, -326, -122, 
317, -122, -439, -97, 378, -280, -112, -122, -244, -395, -278, -102, 
248, -68, -317, -90, 283, -192, -78, -117, -170, -341, -224, -78, 
165, -48, -214, -58, 190, -131, -58, -126, -136, -322, -200, -78, 
87, -24, -112, -31, 100, -68, -14, -87, -87, -302, -170, -53, 
-9, -24, -14, 17, 2, -19, 68, -14, -4, -239, -122, -9, 
-136, -58, 78, 97, -107, 9, 136, 43, 63, -180, -78, 39, 
-190, -39, 151, 114, -170, 56, 175, 68, 97, -146, -48, 63, 
-170, 9, 180, 80, -175, 95, 195, 58, 107, -126, -34, 78, 
-170, 29, 200, 70, -185, 114, 190, 53, 126, -107, -24, 78, 
-200, 19, 219, 90, -209, 119, 180, 39, 131, -97, -19, 73, 
-195, 24, 219, 85, -207, 122, 195, 53, 136, -97, -14, 68, 
-195, 24, 219, 85, -207, 122, 200, 53, 141, -97, -14, 63, 
-204, 19, 224, 92, -214, 122, 200, 53, 141, -97, -14, 58, 
-204, 19, 224, 92, -214, 122, 200, 53, 146, -102, -14, 48, 
-214, 14, 229, 100, -222, 122, 209, 58, 141, -112, -29, 53, 
-219, 9, 229, 104, -224, 119, 209, 58, 141, -107, -34, 53, 
-224, 4, 229, 109, -226, 117, 214, 48, 141, -102, -43, 58, 
-224, 0, 224, 112, -224, 112, 214, 48, 141, -102, -48, 58, 
-229, 9, 239, 109, -234, 124, 209, 48, 151, -97, -34, 68, 
-244, 14, 258, 114, -251, 136, 214, 48, 161, -87, -19, 78, 
-258, 14, 273, 122, -265, 143, 219, 48, 165, -78, -9, 82, 
-248, 29, 278, 109, -263, 153, 219, 53, 170, -68, -4, 82, 
-234, 43, 278, 95, -256, 161, 209, 48, 165, -53, 4, 97, 
-244, 43, 287, 100, -265, 165, 209, 48, 165, -53, 9, 97, 
-244, 48, 292, 97, -268, 170, 204, 43, 165, -53, 9, 82, 
-244, 53, 297, 95, -270, 175, 200, 34, 161, -53, 4, 82, 
-258, 58, 317, 100, -287, 187, 200, 34, 175, -48, 14, 92, 
-263, 68, 331, 97, -297, 200, 204, 34, 185, -48, 19, 102, 
-268, 73, 341, 97, -305, 207, 204, 34, 190, -39, 29, 112, 
-273, 87, 361, 92, -317, 224, 209, 34, 195, -39, 34, 122, 
-263, 82, 346, 90, -305, 214, 219, 34, 200, -29, 24, 117, 
-273, 68, 341, 102, -307, 204, 219, 43, 200, -34, 19, 117, 
-283, 63, 346, 109, -314, 204, 224, 43, 200, -39, 19, 107, 
-283, 68, 351, 107, -317, 209, 229, 43, 195, -43, 14, 97, 
-258, 82, 341, 87, -300, 212, 234, 48, 214, -34, 24, 87, 
-248, 92, 341, 78, -295, 217, 239, 53, 219, -29, 29, 82, 
-248, 107, 356, 70, -302, 231, 244, 63, 219, -29, 29, 82, 
-244, 112, 356, 65, -300, 234, 248, 68, 219, -29, 29, 82, 
-253, 97, 351, 78, -302, 224, 244, 58, 219, -39, 19, 87, 
-258, 92, 351, 82, -305, 222, 253, 68, 229, -29, 19, 92, 
-263, 92, 356, 85, -309, 224, 253, 68, 244, -24, 29, 97, 
-268, 97, 366, 85, -317, 231, 253, 73, 244, -19, 29, 97, 
-273, 122, 395, 75, -334, 258, 258, 82, 253, -14, 34, 87, 
-278, 122, 400, 78, -339, 261, 253, 82, 258, -9, 39, 92, 
-283, 122, 405, 80, -344, 263, 248, 87, 263, 0, 53, 97, 
-297, 122, 419, 87, -358, 270, 253, 87, 268, 4, 58, 97, 
-317, 112, 429, 102, -373, 270, 268, 97, 273, 9, 73, 102, 
-322, 107, 429, 107, -375, 268, 268, 112, 287, 14, 73, 102, 
-346, 102, 448, 122, -397, 275, 273, 122, 287, 14, 73, 107, 
-361, 102, 463, 129, -412, 283, 278, 131, 292, 19, 78, 107, 
-375, 117, 492, 129, -434, 305, 283, 141, 287, 14, 78, 92, 
-380, 122, 502, 129, -441, 312, 287, 151, 297, 19, 78, 87, 
-400, 126, 527, 136, -463, 326, 307, 165, 312, 24, 92, 82, 
-400, 136, 536, 131, -468, 336, 326, 175, 326, 29, 92, 78, 
-395, 151, 546, 122, -470, 348, 326, 170, 322, 19, 82, 73, 
-400, 161, 561, 119, -480, 361, 336, 170, 331, 29, 82, 68, 
-395, 165, 561, 114, -478, 363, 341, 175, 341, 34, 87, 58, 
-390, 175, 566, 107, -478, 370, 346, 180, 346, 39, 92, 48, 
-380, 170, 551, 104, -466, 361, 351, 185, 361, 68, 117, 43, 
-380, 165, 546, 107, -463, 356, 361, 204, 390, 82, 126, 43, 
-390, 165, 556, 112, -473, 361, 375, 209, 405, 92, 136, 39, 
-405, 165, 570, 119, -488, 368, 385, 209, 439, 107, 146, 34, 
-424, 170, 595, 126, -509, 383, 405, 229, 453, 131, 170, 39, 
-439, 175, 614, 131, -527, 395, 409, 234, 468, 141, 185, 29, 
-463, 185, 649, 139, -556, 417, 414, 244, 473, 146, 190, 29, 
-483, 195, 678, 143, -580, 436, 434, 258, 492, 165, 195, 34, 
-497, 204, 702, 146, -600, 453, 453, 273, 512, 185, 219, 24, 
-517, 204, 722, 156, -619, 463, 453, 287, 527, 200, 229, 24, 
-536, 214, 751, 161, -644, 483, 473, 297, 541, 209, 234, 24, 
-556, 239, 795, 158, -675, 517, 473, 317, 546, 219, 244, 24, 
-556, 258, 814, 148, -685, 536, 463, 331, 566, 234, 258, 14, 
-551, 263, 814, 143, -683, 539, 478, 346, 595, 244, 263, 14, 
-556, 263, 819, 146, -688, 541, 483, 370, 610, 263, 263, 4, 
-561, 268, 829, 146, -695, 549, 492, 390, 634, 263, 268, -4, 
-566, 263, 829, 151, -697, 546, 497, 395, 644, 287, 287, 0, 
-575, 268, 844, 153, -710, 556, 507, 419, 663, 312, 297, 14, 
-580, 278, 858, 151, -719, 568, 517, 453, 688, 341, 326, 24, 
-590, 287, 878, 151, -734, 583, 517, 473, 697, 361, 331, 29, 
-585, 302, 888, 141, -736, 595, 512, 483, 712, 370, 336, 24, 
-580, 331, 912, 124, -746, 622, 512, 497, 727, 380, 341, 34, 
-580, 341, 922, 119, -751, 631, 512, 522, 741, 400, 356, 34, 
-575, 361, 936, 107, -756, 649, 512, 531, 746, 409, 361, 39, 
-561, 361, 922, 100, -741, 641, 492, 541, 756, 424, 366, 24, 
-541, 370, 912, 85, -727, 641, 478, 551, 761, 439, 370, 19, 
-536, 375, 912, 80, -724, 644, 458, 570, 766, 444, 370, 4, 
-517, 370, 888, 73, -702, 629, 444, 575, 766, 448, 370, -4, 
-507, 370, 878, 68, -692, 624, 424, 575, 766, 453, 395, 19, 
-492, 380, 873, 56, -683, 627, 409, 575, 766, 468, 414, 29, 
-483, 390, 873, 46, -678, 631, 385, 575, 761, 473, 429, 39, 
-463, 390, 854, 36, -658, 622, 375, 575, 751, 478, 439, 39, 
-448, 380, 829, 34, -639, 605, 366, 561, 732, 463, 439, 29, 
-429, 375, 805, 26, -617, 590, 351, 551, 717, 458, 434, 24, 
-390, 356, 746, 17, -568, 551, 331, 551, 692, 453, 434, 19, 
-385, 351, 736, 17, -561, 544, 302, 541, 668, 444, 429, 14, 
-370, 346, 717, 12, -544, 531, 278, 517, 634, 444, 439, 29, 
-331, 346, 678, -7, -505, 512, 248, 502, 614, 429, 429, 34, 
-317, 336, 653, -9, -485, 495, 229, 473, 585, 414, 419, 34, 
-292, 317, 610, -12, -451, 463, 209, 448, 556, 405, 414, 34, 
-258, 317, 575, -29, -417, 446, 190, 419, 522, 390, 409, 43, 
-209, 322, 531, -56, -370, 427, 170, 400, 492, 366, 409, 43, 
-161, 322, 483, -80, -322, 402, 175, 375, 453, 326, 400, 34, 
-126, 322, 448, -97, -287, 385, 170, 356, 429, 292, 380, 29, 
-122, 292, 414, -85, -268, 353, 151, 322, 385, 258, 341, 0, 
-117, 263, 380, -73, -248, 322, 131, 292, 356, 244, 317, -19, 
-107, 234, 341, -63, -224, 287, 112, 268, 326, 219, 287, -58, 
-107, 224, 331, -58, -219, 278, 102, 244, 292, 195, 258, -82, 
-82, 219, 302, -68, -192, 261, 97, 224, 278, 190, 253, -92, 
-78, 185, 263, -53, -170, 224, 87, 200, 248, 180, 239, -102, 
-73, 180, 253, -53, -163, 217, 73, 170, 224, 161, 224, -117, 
-58, 170, 229, -56, -143, 200, 68, 151, 200, 151, 209, -141, 
-63, 151, 214, -43, -139, 183, 73, 141, 175, 136, 209, -151, 
-63, 117, 180, -26, -122, 148, 73, 131, 156, 107, 204, -156, 
-68, 112, 180, -21, -124, 146, 73, 122, 151, 102, 200, -156, 
-78, 97, 175, -9, -126, 136, 78, 112, 151, 107, 200, -156, 
-82, 73, 156, 4, -119, 114, 78, 112, 126, 82, 185, -180, 
-73, 58, 131, 7, -102, 95, 78, 107, 112, 68, 170, -204, 
-78, 48, 126, 14, -102, 87, 73, 102, 97, 58, 146, -214, 
-82, 43, 126, 19, -104, 85, 73, 97, 78, 43, 131, -234, 
-68, 63, 131, 2, -100, 97, 63, 92, 68, 48, 131, -239, 
-68, 68, 136, 0, -102, 102, 58, 73, 63, 48, 126, -244, 
-63, 78, 141, -7, -102, 109, 58, 63, 63, 53, 131, -244, 
-53, 87, 141, -17, -97, 114, 58, 53, 63, 53, 136, -244, 
-43, 63, 107, -9, -75, 85, 58, 58, 53, 48, 141, -239, 
-43, 39, 82, 2, -63, 61, 58, 53, 48, 34, 136, -244, 
-48, 24, 73, 12, -61, 48, 58, 48, 48, 24, 126, -244, 
-48, 9, 58, 19, -53, 34, 48, 48, 43, 24, 122, -244, 
-63, 4, 68, 29, -65, 36, 48, 53, 43, 39, 126, -239, 
-58, 0, 58, 29, -58, 29, 53, 53, 48, 39, 122, -234, 
-63, -4, 58, 34, -61, 26, 58, 53, 48, 39, 122, -229, 
-73, -9, 63, 41, -68, 26, 58, 53, 53, 39, 122, -229, 
-73, 4, 78, 34, -75, 41, 63, 48, 58, 43, 122, -244, 
-68, 24, 92, 21, -80, 58, 63, 43, 63, 53, 126, -244, 
-63, 39, 102, 12, -82, 70, 68, 39, 68, 63, 126, -244, 
-48, 63, 112, -7, -80, 87, 73, 34, 78, 68, 126, -244, 
-63, 43, 107, 9, -85, 75, 73, 43, 73, 68, 136, -239, 
-78, 39, 117, 19, -97, 78, 73, 48, 73, 82, 136, -234, 
-92, 39, 131, 26, -112, 85, 73, 48, 68, 82, 141, -229, 
-87, 34, 122, 26, -104, 78, 73, 48, 63, 78, 141, -224, 
-97, 24, 122, 36, -109, 73, 73, 43, 58, 63, 126, -239, 
-97, 24, 122, 36, -109, 73, 68, 39, 53, 58, 122, -244, 
-97, 24, 122, 36, -109, 73, 63, 34, 48, 48, 112, -239, 
-92, 24, 117, 34, -104, 70, 58, 29, 43, 43, 107, -244, 
-53, 9, 63, 21, -58, 36, 39, 24, 68, 73, 141, -200, 
-53, 68, 122, -7, -87, 95, 43, 24, 68, 68, 141, -200, 
-19, 112, 131, -46, -75, 122, 43, 34, 58, 58, 131, -200, 
-29, 102, 131, -36, -80, 117, 53, 43, 58, 58, 122, -204, 
-78, 48, 126, 14, -102, 87, 68, 48, 78, 68, 126, -195, 
-78, 58, 136, 9, -107, 97, 68, 58, 92, 87, 136, -185, 
-78, 58, 136, 9, -107, 97, 68, 58, 97, 97, 146, -185, 
-78, 58, 136, 9, -107, 97, 68, 58, 102, 107, 156, -185, 
-78, 58, 136, 9, -107, 97, 68, 58, 107, 117, 165, -185, 
-68, 58, 126, 4, -97, 92, 73, 53, 107, 112, 156, -190, 
-63, 53, 117, 4, -90, 85, 73, 53, 97, 102, 146, -195, 
-58, 43, 102, 7, -80, 73, 73, 53, 87, 87, 136, -200, 
-48, 43, 92, 2, -70, 68, 73, 53, 78, 78, 136, -209, 
-63, 43, 107, 9, -85, 75, 78, 43, 102, 92, 156, -185, 
-78, 58, 136, 9, -107, 97, 78, 43, 107, 107, 161, -175, 
-92, 68, 161, 12, -126, 114, 78, 43, 122, 126, 170, -170, 
-107, 68, 175, 19, -141, 122, 78, 43, 141, 141, 180, -161, 
-87, 92, 180, -2, -134, 136, 87, 53, 151, 161, 204, -141, 
-78, 131, 209, -26, -143, 170, 92, 53, 161, 175, 214, -126, 
-63, 165, 229, -51, -146, 197, 102, 53, 170, 180, 229, -107, 
-53, 185, 239, -65, -146, 212, 107, 53, 170, 185, 244, -97, 
-58, 170, 229, -56, -143, 200, 97, 58, 170, 190, 239, -107, 
-63, 156, 219, -46, -141, 187, 87, 58, 170, 190, 239, -102, 
-68, 151, 219, -41, -143, 185, 78, 53, 170, 190, 234, -97, 
-73, 156, 229, -41, -151, 192, 58, 48, 165, 190, 229, -97, 
-53, 156, 209, -51, -131, 183, 34, 39, 151, 190, 229, -97, 
-39, 151, 190, -56, -114, 170, 24, 43, 151, 180, 229, -97, 
-24, 146, 170, -61, -97, 158, 14, 43, 141, 180, 229, -97, 
-9, 146, 156, -68, -82, 151, -4, 43, 136, 170, 229, -97, 
-24, 136, 161, -56, -92, 148, 0, 34, 126, 161, 214, -102, 
-24, 131, 156, -53, -90, 143, -9, 39, 126, 161, 204, -102, 
-14, 122, 136, -53, -75, 129, -9, 48, 126, 156, 195, -107, 
-14, 102, 117, -43, -65, 109, -14, 53, 112, 151, 180, -107, 
-14, 102, 117, -43, -65, 109, -24, 63, 102, 156, 185, -102, 
-14, 97, 112, -41, -63, 104, -24, 58, 102, 151, 180, -107, 
-9, 87, 97, -39, -53, 92, -24, 58, 97, 151, 175, -107, 
-9, 78, 87, -34, -48, 82, -24, 63, 87, 136, 161, -107, 
-4, 63, 68, -29, -36, 65, -9, 73, 78, 146, 170, -107, 
-14, 48, 63, -17, -39, 56, 0, 82, 82, 156, 165, -97, 
-4, 43, 48, -19, -26, 46, 9, 87, 82, 161, 161, -87, 
-4, 43, 48, -19, -26, 46, 14, 87, 87, 170, 156, -82, 
0, 48, 48, -24, -24, 48, 4, 73, 82, 161, 151, -82, 
14, 53, 39, -34, -12, 46, 4, 68, 78, 156, 146, -82, 
24, 58, 34, -41, -4, 46, 4, 68, 68, 151, 146, -78, 
29, 73, 43, -51, -7, 58, 4, 63, 58, 141, 141, -78, 
34, 58, 24, -46, 4, 41, 0, 63, 68, 146, 126, -87, 
19, 43, 24, -31, -2, 34, 4, 63, 68, 146, 126, -92, 
9, 24, 14, -17, -2, 19, 4, 63, 68, 151, 126, -97, 
-4, 14, 19, -4, -12, 17, 4, 63, 68, 156, 122, -112, 
-24, 19, 43, 2, -34, 31, 24, 58, 63, 146, 112, -112, 
-34, 14, 48, 9, -41, 31, 24, 58, 58, 141, 112, -112, 
-58, 14, 73, 21, -65, 43, 43, 58, 53, 136, 112, -117, 
-58, 19, 78, 19, -68, 48, 48, 68, 53, 131, 112, -117, 
-68, 14, 82, 26, -75, 48, 53, 73, 58, 136, 122, -112, 
-73, 14, 87, 29, -80, 51, 63, 78, 63, 141, 122, -107, 
-82, 14, 97, 34, -90, 56, 63, 82, 68, 146, 117, -102, 
-87, 14, 102, 36, -95, 58, 63, 87, 73, 151, 112, -97, 
-87, -4, 82, 46, -85, 39, 53, 78, 82, 151, 122, -107, 
-92, -4, 87, 48, -90, 41, 53, 78, 78, 161, 117, -117, 
-92, -4, 87, 48, -90, 41, 58, 78, 73, 165, 117, -117, 
-92, -4, 87, 48, -90, 41, 58, 78, 73, 175, 122, -117, 
-78, 4, 82, 36, -80, 43, 73, 68, 68, 170, 122, -112, 
-82, 0, 82, 41, -82, 41, 73, 68, 68, 165, 122, -112, 
-78, 0, 78, 39, -78, 39, 73, 68, 68, 161, 117, -112, 
-73, -4, 68, 39, -70, 31, 73, 68, 68, 156, 117, -112, 
-63, 0, 63, 31, -63, 31, 68, 78, 73, 165, 126, -107, 
-63, 9, 73, 26, -68, 41, 68, 78, 68, 165, 126, -102, 
-63, 19, 82, 21, -73, 51, 68, 73, 68, 165, 126, -97, 
-73, 24, 97, 24, -85, 61, 68, 73, 68, 165, 126, -97, 
-87, 0, 87, 43, -87, 43, 58, 73, 68, 156, 131, -97, 
-82, -4, 78, 43, -80, 36, 58, 73, 63, 156, 131, -92, 
-87, -4, 82, 46, -85, 39, 58, 73, 58, 156, 131, -92, 
-92, -9, 82, 51, -87, 36, 58, 73, 53, 151, 131, -92, 
-97, 9, 107, 43, -102, 58, 24, 43, 39, 131, 87, -122, 
-87, 0, 87, 43, -87, 43, 43, 68, 73, 161, 107, -102, 
-68, 14, 82, 26, -75, 48, 58, 102, 117, 200, 122, -92, 
-68, 24, 92, 21, -80, 58, 73, 122, 117, 200, 112, -102, 
-78, -29, 48, 53, -63, 9, 78, 136, 117, 175, 82, -122, 
-78, -58, 19, 68, -48, -19, 78, 141, 107, 165, 82, -126, 
-73, -19, 53, 46, -63, 17, 87, 161, 107, 170, 112, -112, 
-63, -9, 53, 36, -58, 21, 97, 180, 126, 190, 151, -82, 
-29, -34, -4, 31, -12, -19, 68, 185, 112, 180, 151, -87, 
48, -19, -68, -14, 58, -43, 34, 200, 78, 161, 122, -107, 
97, -14, -112, -41, 104, -63, 0, 239, 63, 170, 126, -92, 
151, -4, -156, -73, 153, -80, -34, 297, 63, 190, 136, -68, 
224, 14, -209, -119, 217, -97, -82, 341, 39, 190, 141, -48, 
283, 4, -278, -143, 280, -136, -151, 370, 9, 175, 131, -43, 
341, 29, -312, -185, 326, -141, -214, 375, -9, 170, 136, -24, 
409, 87, -322, -248, 366, -117, -287, 341, -48, 161, 146, 9, 
468, 141, -326, -305, 397, -92, -400, 253, -107, 146, 165, 39, 
512, 136, -375, -324, 444, -119, -517, 170, -209, 92, 175, 73, 
561, 117, -444, -339, 502, -163, -605, 82, -341, 43, 175, 97, 
629, 102, -527, -366, 578, -212, -658, -9, -483, -24, 151, 117, 
653, 39, -614, -346, 634, -287, -697, -117, -649, -131, 92, 117, 
668, -48, -717, -309, 692, -383, -766, -239, -844, -273, 24, 97, 
722, -73, -795, -324, 758, -434, -863, -361, -1000, -356, -4, 97, 
805, -19, -824, -392, 814, -422, -971, -458, -1078, -409, 4, 136, 
893, 39, -854, -466, 873, -407, -1078, -561, -1156, -458, -4, 146, 
985, 19, -966, -502, 976, -473, -1180, -673, -1239, -527, -39, 146, 
1058, -39, -1098, -509, 1078, -568, -1278, -800, -1337, -605, -78, 131, 
1117, -78, -1195, -519, 1156, -636, -1366, -932, -1410, -653, -92, 146, 
1156, -107, -1263, -524, 1210, -685, -1410, -1019, -1473, -697, -107, 146, 
1166, -200, -1366, -483, 1266, -783, -1420, -1068, -1527, -741, -141, 107, 
1166, -331, -1498, -417, 1332, -915, -1400, -1088, -1571, -780, -190, 73, 
1195, -434, -1629, -380, 1412, -1032, -1361, -1098, -1620, -854, -258, 29, 
1249, -483, -1732, -383, 1490, -1107, -1332, -1127, -1678, -936, -346, -29, 
1263, -527, -1790, -368, 1527, -1159, -1288, -1171, -1698, -985, -400, -68, 
1210, -585, -1795, -312, 1503, -1190, -1220, -1185, -1688, -1029, -444, -102, 
1122, -673, -1795, -224, 1459, -1234, -1127, -1185, -1683, -1083, -512, -180, 
1054, -746, -1800, -153, 1427, -1273, -1039, -1171, -1644, -1098, -566, -268, 
1034, -785, -1820, -124, 1427, -1302, -980, -1127, -1586, -1068, -566, -307, 
1034, -824, -1859, -104, 1446, -1342, -932, -1093, -1537, -1063, -575, -351, 
995, -849, -1844, -73, 1420, -1346, -893, -1073, -1503, -1044, -614, -414, 
961, -858, -1820, -51, 1390, -1339, -834, -1073, -1473, -1015, -629, -463, 
936, -878, -1815, -29, 1376, -1346, -761, -1054, -1454, -1024, -653, -512, 
902, -927, -1830, 12, 1366, -1378, -692, -1015, -1410, -1024, -697, -566, 
844, -976, -1820, 65, 1332, -1398, -644, -980, -1366, -1019, -741, -629, 
771, -995, -1766, 112, 1268, -1381, -610, -951, -1351, -1039, -795, -712, 
707, -1005, -1712, 148, 1210, -1359, -551, -897, -1327, -1068, -844, -785, 
673, -1024, -1698, 175, 1185, -1361, -483, -829, -1249, -1054, -844, -800, 
663, -1010, -1673, 173, 1168, -1342, -453, -780, -1180, -1000, -824, -800, 
653, -966, -1620, 156, 1137, -1293, -439, -751, -1127, -961, -800, -775, 
629, -907, -1537, 139, 1083, -1222, -419, -722, -1068, -902, -751, -736, 
595, -849, -1444, 126, 1019, -1146, -400, -688, -990, -800, -663, -663, 
566, -741, -1307, 87, 936, -1024, -380, -644, -897, -692, -566, -600, 
561, -653, -1215, 46, 888, -934, -375, -595, -795, -605, -488, -531, 
551, -590, -1141, 19, 846, -866, -380, -517, -717, -546, -429, -488, 
570, -502, -1073, -34, 822, -788, -385, -448, -649, -497, -375, -439, 
566, -419, -985, -73, 775, -702, -390, -385, -561, -424, -326, -395, 
566, -356, -922, -104, 744, -639, -385, -326, -468, -356, -278, -385, 
551, -287, -839, -131, 695, -563, -336, -258, -385, -283, -214, -361, 
507, -234, -741, -136, 624, -488, -297, -204, -331, -229, -170, -336, 
434, -204, -639, -114, 536, -422, -263, -175, -302, -200, -161, -341, 
434, -156, -590, -139, 512, -373, -219, -141, -258, -165, -131, -326, 
405, -131, -536, -136, 470, -334, -141, -92, -224, -131, -102, -278, 
287, -146, -434, -70, 361, -290, -107, -78, -170, -87, -78, -273, 
165, -117, -283, -24, 224, -200, -97, -97, -117, -39, -43, -263, 
107, -34, -141, -36, 124, -87, -63, -58, -29, 29, 24, -219, 
39, 34, -4, -36, 21, 14, -19, -14, 53, 82, 73, -185, 
-48, 68, 117, -9, -82, 92, 9, 4, 82, 92, 78, -195, 
-102, 97, 200, 2, -151, 148, 39, 19, 97, 97, 87, -190, 
-122, 107, 229, 7, -175, 168, 58, 29, 107, 107, 102, -185, 
-141, 97, 239, 21, -190, 168, 73, 14, 126, 136, 112, -175, 
-161, 78, 239, 41, -200, 158, 102, 29, 151, 165, 146, -151, 
-175, 73, 248, 51, -212, 161, 117, 24, 146, 170, 151, -146, 
-175, 63, 239, 56, -207, 151, 122, 24, 151, 175, 151, -141, 
-185, 48, 234, 68, -209, 141, 122, 24, 151, 180, 151, -136, 
-185, 39, 224, 73, -204, 131, 122, 24, 156, 180, 151, -136, 
-185, 43, 229, 70, -207, 136, 107, 9, 175, 190, 151, -146, 
-190, 48, 239, 70, -214, 143, 102, 9, 180, 195, 151, -151, 
-195, 53, 248, 70, -222, 151, 102, 0, 185, 200, 146, -151, 
-195, 58, 253, 68, -224, 156, 97, 0, 190, 200, 146, -156, 
-204, 48, 253, 78, -229, 151, 107, 14, 175, 195, 146, -156, 
-214, 53, 268, 80, -241, 161, 117, 19, 180, 195, 156, -146, 
-224, 53, 278, 85, -251, 165, 126, 24, 180, 195, 161, -141, 
-209, 68, 278, 70, -244, 173, 131, 34, 180, 195, 161, -141, 
-195, 78, 273, 58, -234, 175, 126, 14, 185, 209, 170, -122, 
-204, 82, 287, 61, -246, 185, 122, 9, 185, 209, 175, -117, 
-204, 92, 297, 56, -251, 195, 112, 0, 185, 209, 175, -126, 
-204, 102, 307, 51, -256, 204, 102, -14, 180, 209, 170, -122, 
-204, 87, 292, 58, -248, 190, 102, -9, 185, 214, 175, -112, 
-204, 87, 292, 58, -248, 190, 107, -4, 195, 214, 175, -112, 
-204, 82, 287, 61, -246, 185, 107, 0, 200, 224, 180, -112, 
-204, 87, 292, 58, -248, 190, 112, 4, 204, 224, 180, -112, 
-195, 82, 278, 56, -236, 180, 112, 4, 209, 234, 175, -122, 
-204, 68, 273, 68, -239, 170, 112, 14, 209, 229, 175, -117, 
-214, 63, 278, 75, -246, 170, 117, 14, 209, 224, 180, -122, 
-214, 68, 283, 73, -248, 175, 122, 14, 204, 219, 180, -126, 
-219, 78, 297, 70, -258, 187, 112, 4, 229, 224, 190, -117, 
-219, 82, 302, 68, -261, 192, 112, 4, 239, 234, 195, -122, 
-229, 92, 322, 68, -275, 207, 112, 9, 244, 239, 195, -122, 
-234, 92, 326, 70, -280, 209, 112, 9, 248, 244, 195, -122, 
-224, 78, 302, 73, -263, 190, 112, 0, 229, 229, 185, -126, 
-229, 73, 302, 78, -265, 187, 117, 9, 229, 224, 175, -131, 
-234, 73, 307, 80, -270, 190, 112, 9, 234, 214, 175, -136, 
-239, 78, 317, 80, -278, 197, 107, 14, 224, 204, 165, -146, 
-229, 107, 336, 61, -283, 222, 117, 19, 244, 214, 170, -141, 
-229, 112, 341, 58, -285, 226, 117, 24, 248, 224, 175, -131, 
-229, 117, 346, 56, -287, 231, 117, 34, 253, 239, 190, -122, 
-239, 122, 361, 58, -300, 241, 126, 39, 258, 248, 195, -117, 
-239, 107, 346, 65, -292, 226, 136, 48, 273, 278, 209, -112, 
-234, 107, 341, 63, -287, 224, 141, 53, 297, 287, 219, -112, 
-248, 107, 356, 70, -302, 231, 151, 53, 307, 292, 229, -107, 
-253, 112, 366, 70, -309, 239, 161, 53, 322, 302, 244, -107, 
-268, 112, 380, 78, -324, 246, 165, 73, 317, 292, 234, -112, 
-283, 112, 395, 85, -339, 253, 170, 82, 326, 292, 224, -117, 
-312, 112, 424, 100, -368, 268, 190, 97, 341, 292, 229, -122, 
-322, 117, 439, 102, -380, 278, 209, 107, 356, 292, 219, -126, 
-317, 126, 444, 95, -380, 285, 195, 102, 356, 287, 214, -131, 
-322, 131, 453, 95, -387, 292, 190, 92, 361, 292, 209, -136, 
-317, 131, 448, 92, -383, 290, 180, 87, 366, 292, 209, -146, 
-312, 136, 448, 87, -380, 292, 170, 82, 366, 292, 209, -156, 
-322, 136, 458, 92, -390, 297, 195, 97, 370, 302, 214, -156, 
-322, 136, 458, 92, -390, 297, 204, 117, 390, 307, 214, -151, 
-331, 141, 473, 95, -402, 307, 219, 122, 395, 307, 214, -151, 
-346, 146, 492, 100, -419, 319, 229, 122, 419, 312, 214, -151, 
-351, 165, 517, 92, -434, 341, 239, 136, 439, 341, 239, -136, 
-361, 175, 536, 92, -448, 356, 244, 146, 458, 356, 253, -136, 
-380, 190, 570, 95, -475, 380, 248, 161, 468, 366, 258, -126, 
-395, 204, 600, 95, -497, 402, 268, 180, 492, 390, 263, -112, 
-400, 200, 600, 100, -500, 400, 263, 185, 507, 395, 268, -117, 
-409, 195, 605, 107, -507, 400, 258, 190, 517, 405, 268, -122, 
-419, 200, 619, 109, -519, 409, 273, 190, 527, 409, 263, -126, 
-429, 219, 649, 104, -539, 434, 268, 200, 527, 414, 263, -131, 
-434, 214, 649, 109, -541, 431, 273, 214, 541, 414, 263, -136, 
-434, 204, 639, 114, -536, 422, 292, 229, 566, 419, 263, -131, 
-444, 190, 634, 126, -539, 412, 302, 253, 575, 434, 258, -136, 
-453, 180, 634, 136, -544, 407, 317, 273, 595, 429, 258, -141, 
-453, 190, 644, 131, -549, 417, 336, 297, 614, 439, 273, -141, 
-458, 209, 668, 124, -563, 439, 351, 322, 634, 458, 278, -131, 
-458, 234, 692, 112, -575, 463, 366, 356, 658, 483, 302, -126, 
-463, 258, 722, 102, -592, 490, 370, 375, 668, 497, 302, -126, 
-478, 253, 732, 112, -605, 492, 356, 375, 683, 512, 312, -117, 
-483, 273, 756, 104, -619, 514, 346, 380, 697, 527, 322, -102, 
-492, 273, 766, 109, -629, 519, 336, 395, 712, 551, 341, -97, 
-497, 283, 780, 107, -639, 531, 326, 395, 717, 566, 351, -87, 
-478, 278, 756, 100, -617, 517, 317, 395, 722, 561, 346, -97, 
-453, 283, 736, 85, -595, 509, 312, 405, 722, 566, 341, -97, 
-444, 283, 727, 80, -585, 505, 302, 424, 722, 561, 331, -107, 
-419, 273, 692, 73, -556, 483, 297, 429, 717, 556, 322, -112, 
-424, 283, 707, 70, -566, 495, 292, 439, 722, 561, 336, -82, 
-414, 302, 717, 56, -566, 509, 283, 439, 727, 575, 356, -68, 
-409, 322, 732, 43, -570, 527, 263, 439, 727, 580, 370, -53, 
-395, 331, 727, 31, -561, 529, 258, 439, 722, 585, 380, -48, 
-380, 346, 727, 17, -553, 536, 248, 429, 717, 595, 395, -34, 
-351, 356, 707, -2, -529, 531, 234, 414, 707, 595, 395, -24, 
-302, 351, 653, -24, -478, 502, 214, 409, 688, 595, 400, -14, 
-287, 361, 649, -36, -468, 505, 185, 395, 668, 590, 400, -4, 
-273, 346, 619, -36, -446, 483, 175, 380, 653, 566, 395, -9, 
-234, 336, 570, -51, -402, 453, 151, 366, 634, 546, 380, -4, 
-219, 317, 536, -48, -378, 427, 136, 336, 605, 527, 366, -4, 
-195, 287, 483, -46, -339, 385, 122, 312, 575, 512, 356, -4, 
-200, 283, 483, -41, -341, 383, 97, 283, 541, 502, 361, 4, 
-180, 283, 463, -51, -322, 373, 73, 263, 512, 483, 361, 4, 
-161, 278, 439, -58, -300, 358, 73, 239, 473, 448, 351, -4, 
-156, 273, 429, -58, -292, 351, 63, 219, 448, 419, 331, -9, 
-136, 248, 385, -56, -261, 317, 53, 195, 400, 390, 307, -9, 
-117, 224, 341, -53, -229, 283, 34, 165, 375, 380, 297, -9, 
-92, 200, 292, -53, -192, 246, 14, 141, 351, 361, 283, -29, 
-78, 195, 273, -58, -175, 234, 4, 117, 322, 341, 268, -34, 
-68, 170, 239, -51, -153, 204, 4, 102, 307, 322, 263, -39, 
-68, 136, 204, -34, -136, 170, 0, 82, 278, 307, 248, -43, 
-68, 131, 200, -31, -134, 165, -9, 58, 253, 283, 234, -53, 
-58, 122, 180, -31, -119, 151, -9, 43, 229, 268, 219, -73, 
-58, 97, 156, -19, -107, 126, -14, 24, 190, 248, 214, -82, 
-53, 68, 122, -7, -87, 95, -24, 4, 165, 214, 204, -87, 
-53, 68, 122, -7, -87, 95, -34, -14, 156, 204, 195, -87, 
-58, 58, 117, 0, -87, 87, -39, -34, 151, 204, 190, -87, 
-48, 43, 92, 2, -70, 68, -29, -29, 126, 170, 175, -102, 
-34, 39, 73, -2, -53, 56, -29, -39, 112, 156, 161, -117, 
-34, 39, 73, -2, -53, 56, -34, -48, 97, 146, 136, -117, 
-34, 43, 78, -4, -56, 61, -34, -58, 78, 131, 122, -126, 
-34, 39, 73, -2, -53, 56, -34, -58, 68, 122, 126, -141, 
-39, 29, 68, 4, -53, 48, -39, -73, 63, 117, 117, -146, 
-39, 24, 63, 7, -51, 43, -39, -78, 63, 117, 117, -146, 
-34, 19, 53, 7, -43, 36, -39, -82, 63, 112, 117, -146, 
-24, 24, 48, 0, -36, 36, -34, -78, 68, 117, 117, -141, 
-14, 19, 34, -2, -24, 26, -29, -82, 68, 112, 117, -146, 
-9, 24, 34, -7, -21, 29, -24, -87, 73, 112, 112, -146, 
0, 29, 29, -14, -14, 29, -29, -87, 73, 122, 112, -146, 
-24, 14, 39, 4, -31, 26, -29, -82, 63, 122, 107, -146, 
-39, 9, 48, 14, -43, 29, -24, -82, 58, 117, 102, -146, 
-63, 4, 68, 29, -65, 36, -19, -82, 48, 112, 102, -146, 
-92, 0, 92, 46, -92, 46, -19, -82, 43, 107, 102, -151, 
-78, 9, 87, 34, -82, 48, -19, -82, 53, 107, 112, -151, 
-68, 14, 82, 26, -75, 48, -24, -82, 53, 112, 117, -146, 
-58, 14, 73, 21, -65, 43, -24, -82, 53, 117, 117, -141, 
-39, 24, 63, 7, -51, 43, -24, -82, 58, 117, 117, -136, 
-58, -4, 53, 31, -56, 24, -19, -73, 58, 107, 112, -146, 
-68, -9, 58, 39, -63, 24, -14, -68, 63, 122, 107, -146, 
-78, -9, 68, 43, -73, 29, -9, -68, 63, 122, 107, -146, 
-68, -14, 53, 41, -61, 19, -4, -68, 63, 117, 102, -146, 
-58, -9, 48, 34, -53, 19, 0, -78, 73, 122, 107, -131, 
-58, -4, 53, 31, -56, 24, 0, -78, 73, 126, 112, -126, 
-58, 0, 58, 29, -58, 29, 0, -78, 73, 126, 112, -112, 
-53, 4, 58, 24, -56, 31, 0, -78, 73, 131, 117, -107, 
-58, -4, 53, 31, -56, 24, 0, -82, 68, 136, 112, -122, 
-63, -9, 53, 36, -58, 21, -4, -82, 68, 136, 112, -122, 
-73, -9, 63, 41, -68, 26, -4, -82, 68, 131, 112, -122, 
-78, -14, 63, 46, -70, 24, -4, -82, 68, 126, 102, -126, 
-73, -9, 63, 41, -68, 26, 14, -63, 73, 117, 97, -126, 
-78, -9, 68, 43, -73, 29, 14, -63, 73, 122, 107, -126, 
-78, -9, 68, 43, -73, 29, 19, -58, 82, 131, 107, -126, 
-78, -9, 68, 43, -73, 29, 24, -58, 87, 141, 107, -126, 
-39, 39, 78, 0, -58, 58, 14, -58, 87, 141, 107, -112, 
-34, 58, 92, -12, -63, 75, 4, -58, 87, 141, 107, -107, 
-48, 29, 78, 9, -63, 53, 19, -48, 97, 156, 117, -97, 
-58, 19, 78, 19, -68, 48, 9, -53, 97, 156, 117, -87, 
-58, 19, 78, 19, -68, 48, 9, -58, 97, 156, 117, -87, 
-58, 19, 78, 19, -68, 48, 9, -63, 97, 156, 117, -87, 
-58, 19, 78, 19, -68, 48, 9, -68, 97, 156, 117, -87, 
-48, 34, 82, 7, -65, 58, 14, -68, 107, 165, 126, -73, 
-53, 43, 97, 4, -75, 70, 14, -63, 107, 170, 126, -68, 
-58, 48, 107, 4, -82, 78, 14, -58, 107, 170, 126, -63, 
-58, 63, 122, -2, -90, 92, 14, -53, 107, 175, 136, -63, 
-63, 73, 136, -4, -100, 104, 29, -43, 117, 190, 141, -43, 
-68, 87, 156, -9, -112, 122, 29, -43, 117, 195, 141, -39, 
-73, 97, 170, -12, -122, 134, 29, -43, 126, 204, 146, -39, 
-78, 97, 175, -9, -126, 136, 29, -43, 141, 209, 151, -34, 
-68, 92, 161, -12, -114, 126, 34, -43, 131, 214, 146, -34, 
-68, 112, 180, -21, -124, 146, 34, -43, 141, 224, 146, -29, 
-63, 126, 190, -31, -126, 158, 39, -43, 151, 224, 151, -19, 
-63, 126, 190, -31, -126, 158, 39, -43, 151, 224, 156, -19, 
-53, 136, 190, -41, -122, 163, 29, -39, 151, 219, 146, -29, 
-53, 126, 180, -36, -117, 153, 19, -39, 151, 219, 151, -24, 
-53, 126, 180, -36, -117, 153, 9, -43, 151, 219, 151, -19, 
-53, 136, 190, -41, -122, 163, -9, -48, 146, 219, 151, -19, 
-43, 126, 170, -41, -107, 148, -9, -43, 151, 224, 161, -4, 
-39, 122, 161, -41, -100, 141, -14, -34, 151, 219, 161, 0, 
-34, 117, 151, -41, -92, 134, -19, -29, 141, 224, 161, 4, 
-29, 117, 146, -43, -87, 131, -34, -24, 136, 219, 161, 9, 
-39, 112, 151, -36, -95, 131, -43, -24, 131, 214, 151, -4, 
-34, 102, 136, -34, -85, 119, -58, -19, 126, 209, 146, -4, 
-19, 87, 107, -34, -63, 97, -63, -9, 122, 200, 141, -9, 
-14, 63, 78, -24, -46, 70, -73, -4, 102, 190, 131, -9, 
-19, 63, 82, -21, -51, 73, -58, 0, 97, 190, 136, -4, 
-24, 58, 82, -17, -53, 70, -53, 0, 102, 190, 131, -9, 
-24, 48, 73, -12, -48, 61, -48, 4, 102, 195, 126, -9, 
-29, 39, 68, -4, -48, 53, -43, 14, 97, 185, 112, -9, 
-9, 34, 43, -12, -26, 39, -53, 14, 68, 161, 102, -24, 
-4, 19, 24, -7, -14, 21, -48, 14, 63, 156, 87, -29, 
19, 14, -4, -17, 12, 4, -43, 9, 53, 146, 73, -34, 
34, 14, -19, -24, 26, -2, -43, 0, 48, 141, 58, -43, 
29, 9, -19, -19, 24, -4, -43, 0, 39, 136, 58, -34, 
34, 4, -29, -19, 31, -12, -43, 0, 39, 136, 58, -34, 
34, 0, -34, -17, 34, -17, -43, 4, 34, 136, 63, -29, 
29, 4, -24, -17, 26, -9, -43, 4, 29, 131, 63, -29, 
39, 9, -29, -24, 34, -9, -34, 4, 39, 131, 58, -29, 
29, 4, -24, -17, 26, -9, -24, 4, 39, 126, 58, -24, 
24, -4, -29, -9, 26, -17, -19, 4, 39, 126, 58, -19, 
14, -4, -19, -4, 17, -12, -14, 4, 39, 126, 53, -24, 
-24, -9, 14, 17, -19, 2, 0, 4, 43, 131, 43, 0, 
-43, -24, 19, 34, -31, -2, 4, 9, 48, 131, 43, 4, 
-78, -34, 43, 56, -61, 4, 29, 14, 53, 131, 43, 4, 
-87, -39, 48, 63, -68, 4, 39, 29, 63, 131, 43, 9, 
-92, -43, 48, 68, -70, 2, 34, 29, 53, 131, 34, 19, 
-92, -43, 48, 68, -70, 2, 43, 29, 53, 131, 34, 19, 
-97, -43, 53, 70, -75, 4, 43, 29, 53, 131, 29, 19, 
-97, -43, 53, 70, -75, 4, 43, 29, 53, 131, 24, 19, 
-78, -39, 39, 58, -58, 0, 53, 29, 63, 131, 14, 29, 
-73, -34, 39, 53, -56, 2, 53, 29, 58, 131, 9, 19, 
-63, -29, 34, 46, -48, 2, 58, 29, 53, 126, 9, 19, 
-53, -24, 29, 39, -41, 2, 58, 29, 53, 126, 14, 19, 
-63, -39, 24, 51, -43, -7, 63, 29, 48, 117, 14, 24, 
-82, -48, 34, 65, -58, -7, 63, 29, 48, 117, 14, 24, 
-92, -53, 39, 73, -65, -7, 63, 29, 48, 117, 9, 24, 
-102, -63, 39, 82, -70, -12, 63, 29, 48, 117, 9, 24, 
-82, -58, 24, 70, -53, -17, 68, 29, 43, 112, 19, 34, 
-82, -48, 34, 65, -58, -7, 68, 29, 39, 107, 19, 34, 
-82, -39, 43, 61, -63, 2, 68, 24, 39, 102, 19, 34, 
-92, -34, 58, 63, -75, 12, 68, 24, 39, 97, 19, 29, 
-82, -53, 29, 68, -56, -12, 68, 24, 43, 107, 14, 34, 
-73, -53, 19, 63, -46, -17, 68, 24, 43, 107, 14, 43, 
-73, -48, 24, 61, -48, -12, 68, 24, 43, 107, 14, 48, 
-73, -48, 24, 61, -48, -12, 68, 24, 43, 102, 14, 53, 
-68, -39, 29, 53, -48, -4, 73, 34, 58, 112, 9, 53, 
-78, -39, 39, 58, -58, 0, 82, 58, 63, 112, 9, 53, 
-117, -63, 53, 90, -85, -4, 78, 73, 58, 102, 14, 43, 
-117, -92, 24, 104, -70, -34, 92, 92, 68, 102, 14, 43, 
-87, -78, 9, 82, -48, -34, 107, 117, 97, 117, 14, 43, 
-87, -48, 39, 68, -63, -4, 107, 131, 107, 126, 14, 48, 
-82, -48, 34, 65, -58, -7, 107, 161, 117, 131, 34, 53, 
-63, -48, 14, 56, -39, -17, 107, 180, 117, 131, 34, 73, 
-9, -43, -34, 26, 12, -39, 78, 204, 92, 131, 24, 87, 
68, -48, -117, -9, 92, -82, 34, 219, 78, 122, 14, 97, 
136, -53, -190, -41, 163, -122, -19, 258, 53, 112, 19, 92, 
180, -43, -224, -68, 202, -134, -73, 307, 34, 102, 19, 97, 
234, -14, -248, -109, 241, -131, -122, 370, 19, 102, 34, 126, 
322, 4, -317, -163, 319, -156, -170, 419, 0, 126, 73, 170, 
380, 9, -370, -195, 375, -180, -244, 405, -29, 122, 97, 190, 
409, 19, -390, -214, 400, -185, -346, 351, -68, 112, 107, 204, 
468, 53, -414, -261, 441, -180, -439, 292, -126, 117, 117, 253, 
570, 87, -483, -329, 527, -197, -527, 219, -229, 82, 126, 307, 
658, 87, -570, -373, 614, -241, -624, 122, -361, 4, 97, 322, 
649, 53, -595, -351, 622, -270, -707, 9, -502, -82, 53, 312, 
653, 29, -624, -341, 639, -297, -766, -117, -649, -180, 14, 312, 
746, 29, -717, -387, 732, -344, -824, -248, -805, -273, -14, 322, 
819, 14, -805, -417, 812, -395, -951, -361, -941, -356, -34, 331, 
863, 9, -854, -436, 858, -422, -1078, -478, -1039, -409, -43, 351, 
912, 9, -902, -461, 907, -446, -1166, -600, -1117, -458, -53, 370, 
1005, -29, -1034, -488, 1019, -531, -1259, -702, -1200, -507, -78, 370, 
1078, -68, -1146, -505, 1112, -607, -1327, -810, -1268, -556, -87, 385, 
1127, -68, -1195, -529, 1161, -631, -1385, -902, -1322, -605, -112, 400, 
1166, -87, -1254, -539, 1210, -671, -1400, -971, -1376, -658, -146, 390, 
1195, -170, -1366, -512, 1281, -768, -1381, -1010, -1420, -712, -190, 380, 
1224, -263, -1488, -480, 1356, -875, -1361, -1010, -1454, -771, -229, 366, 
1234, -307, -1542, -463, 1388, -924, -1351, -1039, -1522, -844, -297, 302, 
1259, -326, -1586, -466, 1422, -956, -1342, -1098, -1571, -907, -356, 234, 
1234, -448, -1683, -392, 1459, -1066, -1268, -1132, -1571, -936, -370, 204, 
1171, -605, -1776, -283, 1473, -1190, -1151, -1137, -1551, -951, -405, 161, 
1132, -653, -1786, -239, 1459, -1220, -1078, -1156, -1556, -985, -463, 73, 
1132, -668, -1800, -231, 1466, -1234, -1039, -1161, -1556, -1029, -527, -4, 
1093, -727, -1820, -183, 1456, -1273, -1000, -1137, -1527, -1039, -566, -53, 
1054, -766, -1820, -143, 1437, -1293, -941, -1083, -1498, -1044, -595, -97, 
1044, -761, -1805, -141, 1424, -1283, -902, -1063, -1473, -1044, -624, -122, 
1029, -780, -1810, -124, 1420, -1295, -854, -1063, -1454, -1054, -649, -151, 
985, -839, -1825, -73, 1405, -1332, -780, -1024, -1415, -1054, -683, -190, 
922, -888, -1810, -17, 1366, -1349, -702, -976, -1390, -1073, -727, -253, 
883, -897, -1781, 7, 1332, -1339, -653, -941, -1385, -1098, -780, -336, 
849, -907, -1756, 29, 1302, -1332, -610, -893, -1361, -1098, -824, -409, 
814, -927, -1742, 56, 1278, -1334, -561, -829, -1307, -1078, -854, -453, 
771, -956, -1727, 92, 1249, -1342, -502, -771, -1239, -1054, -844, -478, 
751, -941, -1693, 95, 1222, -1317, -463, -712, -1171, -1000, -814, -448, 
732, -888, -1620, 78, 1176, -1254, -429, -653, -1078, -922, -751, -405, 
736, -800, -1537, 31, 1137, -1168, -409, -624, -1000, -854, -702, -366, 
761, -702, -1464, -29, 1112, -1083, -409, -590, -951, -810, -673, -341, 
741, -644, -1385, -48, 1063, -1015, -400, -556, -888, -751, -624, -307, 
668, -624, -1293, -21, 980, -958, -366, -488, -814, -683, -575, -268, 
629, -590, -1220, -19, 924, -905, -351, -409, -717, -595, -507, -234, 
639, -492, -1132, -73, 885, -812, -346, -331, -619, -517, -434, -185, 
644, -400, -1044, -122, 844, -722, -331, -258, -531, -453, -385, -161, 
624, -366, -990, -129, 807, -678, -317, -200, -488, -414, -356, -151, 
580, -366, -946, -107, 763, -656, -287, -161, -453, -400, -341, -146, 
546, -331, -878, -107, 712, -605, -268, -136, -419, -375, -317, -141, 
492, -263, -756, -114, 624, -509, -234, -126, -370, -336, -297, -117, 
434, -214, -649, -109, 541, -431, -190, -102, -326, -292, -268, -92, 
346, -200, -546, -73, 446, -373, -141, -82, -283, -258, -229, -73, 
239, -185, -424, -26, 331, -305, -87, -48, -219, -195, -175, -39, 
156, -165, -322, 4, 239, -244, -29, -19, -136, -126, -122, 9, 
87, -112, -200, 12, 143, -156, 14, 9, -68, -87, -82, 14, 
19, -63, -82, 21, 51, -73, 39, 14, -14, -53, -53, 19, 
-39, -48, -9, 43, -14, -29, 87, 43, 34, -4, -19, 39, 
-102, -39, 63, 70, -82, 12, 136, 68, 78, 39, 19, 63, 
-151, -19, 131, 85, -141, 56, 146, 68, 97, 48, 24, 58, 
-190, -9, 180, 100, -185, 85, 161, 73, 107, 48, 24, 68, 
-229, -19, 209, 124, -219, 95, 190, 97, 122, 68, 39, 82, 
-219, -9, 209, 114, -214, 100, 185, 92, 117, 73, 43, 73, 
-214, -4, 209, 109, -212, 102, 190, 92, 122, 78, 43, 73, 
-219, -4, 214, 112, -217, 104, 190, 92, 122, 82, 43, 73, 
-214, 0, 214, 107, -214, 107, 190, 92, 126, 82, 43, 68, 
-204, -4, 200, 104, -202, 97, 190, 78, 122, 82, 53, 73, 
-209, -9, 200, 109, -204, 95, 190, 78, 122, 87, 53, 73, 
-214, -14, 200, 114, -207, 92, 195, 68, 122, 92, 48, 78, 
-214, -19, 195, 117, -204, 87, 195, 68, 122, 92, 48, 78, 
-229, -4, 224, 117, -226, 109, 195, 63, 112, 82, 43, 73, 
-244, 4, 248, 119, -246, 126, 195, 58, 122, 87, 48, 78, 
-258, 9, 268, 124, -263, 139, 195, 53, 126, 92, 48, 78, 
-248, 29, 278, 109, -263, 153, 190, 53, 131, 97, 43, 73, 
-248, 19, 268, 114, -258, 143, 204, 68, 151, 107, 48, 82, 
-263, 4, 268, 129, -265, 136, 209, 78, 156, 112, 58, 87, 
-268, -4, 263, 136, -265, 129, 209, 82, 161, 117, 63, 78, 
-273, -14, 258, 143, -265, 122, 209, 82, 161, 122, 63, 82, 
-263, -4, 258, 134, -261, 126, 195, 68, 156, 107, 43, 82, 
-253, 9, 263, 122, -258, 136, 195, 63, 156, 107, 39, 82, 
-244, 19, 263, 112, -253, 141, 190, 58, 151, 117, 39, 82, 
-234, 39, 273, 97, -253, 156, 190, 53, 146, 117, 34, 82, 
-239, 34, 273, 102, -256, 153, 195, 68, 165, 131, 48, 78, 
-253, 19, 273, 117, -263, 146, 200, 82, 170, 131, 48, 87, 
-268, 14, 283, 126, -275, 148, 209, 87, 175, 131, 53, 87, 
-273, 19, 292, 126, -283, 156, 219, 92, 175, 131, 53, 87, 
-273, 14, 287, 129, -280, 151, 209, 82, 175, 122, 48, 78, 
-278, 14, 292, 131, -285, 153, 209, 82, 180, 126, 48, 73, 
-292, 19, 312, 136, -302, 165, 209, 87, 180, 126, 43, 73, 
-302, 14, 317, 143, -309, 165, 209, 87, 180, 126, 39, 73, 
-292, 9, 302, 141, -297, 156, 224, 92, 190, 136, 43, 78, 
-297, 14, 312, 141, -305, 163, 234, 107, 200, 146, 48, 82, 
-302, 24, 326, 139, -314, 175, 234, 112, 214, 151, 63, 87, 
-307, 39, 346, 134, -326, 192, 234, 122, 214, 156, 68, 87, 
-297, 53, 351, 122, -324, 202, 234, 122, 214, 156, 68, 82, 
-287, 53, 341, 117, -314, 197, 234, 122, 219, 156, 68, 82, 
-278, 53, 331, 112, -305, 192, 234, 126, 224, 161, 78, 82, 
-278, 53, 331, 112, -305, 192, 244, 126, 229, 161, 78, 78, 
-297, 43, 341, 126, -319, 192, 258, 126, 234, 175, 92, 82, 
-302, 48, 351, 126, -326, 200, 258, 131, 248, 180, 92, 82, 
-326, 53, 380, 136, -353, 217, 263, 131, 248, 180, 92, 87, 
-341, 63, 405, 139, -373, 234, 268, 131, 253, 185, 97, 87, 
-341, 63, 405, 139, -373, 234, 258, 141, 258, 180, 82, 78, 
-341, 63, 405, 139, -373, 234, 258, 151, 268, 185, 78, 78, 
-356, 63, 419, 146, -387, 241, 273, 165, 283, 190, 87, 78, 
-351, 68, 419, 141, -385, 244, 287, 175, 297, 195, 82, 78, 
-361, 73, 434, 143, -397, 253, 297, 195, 302, 204, 92, 78, 
-380, 73, 453, 153, -417, 263, 307, 200, 312, 214, 92, 78, 
-390, 68, 458, 161, -424, 263, 312, 209, 322, 219, 97, 73, 
-400, 68, 468, 165, -434, 268, 317, 219, 326, 224, 102, 68, 
-390, 78, 468, 156, -429, 273, 322, 244, 322, 229, 107, 68, 
-390, 78, 468, 156, -429, 273, 331, 273, 341, 239, 107, 73, 
-400, 82, 483, 158, -441, 283, 346, 287, 346, 244, 107, 73, 
-414, 87, 502, 163, -458, 295, 356, 297, 370, 253, 107, 73, 
-429, 92, 522, 168, -475, 307, 366, 307, 385, 273, 117, 73, 
-439, 97, 536, 170, -488, 317, 370, 312, 400, 278, 126, 68, 
-458, 107, 566, 175, -512, 336, 375, 322, 405, 278, 126, 73, 
-473, 117, 590, 178, -531, 353, 395, 336, 424, 292, 126, 82, 
-473, 126, 600, 173, -536, 363, 405, 317, 434, 297, 146, 73, 
-478, 126, 605, 175, -541, 366, 405, 307, 448, 307, 161, 73, 
-483, 136, 619, 173, -551, 378, 424, 292, 463, 312, 170, 73, 
-488, 161, 649, 163, -568, 405, 424, 287, 468, 317, 185, 73, 
-507, 161, 668, 173, -588, 414, 424, 287, 492, 326, 200, 63, 
-512, 156, 668, 178, -590, 412, 439, 297, 517, 331, 204, 73, 
-527, 146, 673, 190, -600, 409, 444, 317, 527, 346, 204, 73, 
-541, 141, 683, 200, -612, 412, 453, 331, 546, 341, 209, 73, 
-551, 146, 697, 202, -624, 422, 458, 341, 566, 356, 204, 63, 
-556, 161, 717, 197, -636, 439, 468, 361, 585, 370, 209, 73, 
-556, 180, 736, 187, -646, 458, 478, 390, 610, 390, 234, 78, 
-561, 200, 761, 180, -661, 480, 478, 405, 619, 400, 234, 78, 
-570, 200, 771, 185, -671, 485, 483, 405, 634, 400, 239, 87, 
-570, 214, 785, 178, -678, 500, 483, 419, 649, 409, 244, 102, 
-575, 209, 785, 183, -680, 497, 483, 444, 663, 429, 258, 107, 
-575, 214, 790, 180, -683, 502, 483, 453, 668, 439, 263, 117, 
-580, 209, 790, 185, -685, 500, 478, 458, 688, 434, 273, 126, 
-570, 224, 795, 173, -683, 509, 468, 473, 692, 448, 283, 136, 
-575, 234, 810, 170, -692, 522, 453, 497, 697, 453, 287, 136, 
-566, 234, 800, 165, -683, 517, 444, 507, 697, 458, 292, 141, 
-531, 253, 785, 139, -658, 519, 429, 517, 697, 468, 302, 156, 
-502, 273, 775, 114, -639, 524, 419, 517, 697, 478, 317, 165, 
-478, 292, 771, 92, -624, 531, 400, 517, 692, 478, 326, 175, 
-444, 302, 746, 70, -595, 524, 395, 517, 683, 478, 331, 175, 
-448, 297, 746, 75, -597, 522, 385, 502, 688, 468, 326, 195, 
-439, 297, 736, 70, -588, 517, 370, 492, 678, 468, 326, 200, 
-409, 283, 692, 63, -551, 488, 351, 492, 658, 468, 331, 204, 
-414, 283, 697, 65, -556, 490, 322, 483, 639, 463, 331, 209, 
-385, 287, 673, 48, -529, 480, 307, 468, 605, 439, 322, 224, 
-341, 287, 629, 26, -485, 458, 278, 453, 585, 419, 312, 229, 
-322, 278, 600, 21, -461, 439, 258, 424, 556, 400, 302, 229, 
-292, 258, 551, 17, -422, 405, 239, 400, 527, 385, 297, 229, 
-297, 244, 541, 26, -419, 392, 224, 380, 512, 375, 292, 229, 
-278, 234, 512, 21, -395, 373, 200, 361, 483, 356, 292, 229, 
-258, 219, 478, 19, -368, 348, 200, 336, 444, 322, 283, 219, 
-253, 204, 458, 24, -356, 331, 190, 317, 419, 292, 263, 214, 
-224, 204, 429, 9, -326, 317, 175, 302, 390, 283, 248, 224, 
-204, 185, 390, 9, -297, 287, 161, 273, 366, 273, 239, 224, 
-180, 165, 346, 7, -263, 256, 146, 248, 341, 253, 224, 204, 
-165, 165, 331, 0, -248, 248, 141, 224, 312, 234, 209, 200, 
-151, 141, 292, 4, -222, 217, 126, 204, 283, 209, 195, 195, 
-146, 107, 253, 19, -200, 180, 117, 180, 248, 190, 180, 190, 
-141, 102, 244, 19, -192, 173, 102, 151, 219, 161, 165, 180, 
-126, 92, 219, 17, -173, 156, 97, 131, 190, 141, 151, 161, 
-107, 87, 195, 9, -151, 141, 92, 112, 161, 117, 131, 146, 
-92, 58, 151, 17, -122, 104, 82, 92, 136, 78, 117, 136, 
-82, 58, 141, 12, -112, 100, 73, 73, 126, 63, 102, 131, 
-78, 48, 126, 14, -102, 87, 68, 53, 122, 58, 92, 126, 
-68, 19, 87, 24, -78, 53, 58, 39, 102, 34, 78, 112, 
-53, 9, 63, 21, -58, 36, 58, 29, 82, 19, 63, 97, 
-53, 4, 58, 24, -56, 31, 53, 19, 63, 9, 39, 97, 
-53, 4, 58, 24, -56, 31, 53, 9, 39, -4, 24, 87, 
-58, 14, 73, 21, -65, 43, 58, 24, 34, 4, 24, 87, 
-68, 9, 78, 29, -73, 43, 58, 14, 34, 0, 19, 87, 
-73, 9, 82, 31, -78, 46, 63, 14, 39, 0, 24, 92, 
-73, 9, 82, 31, -78, 46, 68, 14, 43, -4, 29, 97, 
-73, 4, 78, 34, -75, 41, 58, 0, 24, -9, 34, 87, 
-73, -9, 63, 41, -68, 26, 58, -4, 19, -24, 29, 78, 
-78, -14, 63, 46, -70, 24, 58, -9, 19, -34, 19, 73, 
-78, -19, 58, 48, -68, 19, 48, -9, 14, -34, 14, 68, 
-78, -24, 53, 51, -65, 14, 48, -19, 9, -43, 4, 58, 
-68, -29, 39, 48, -53, 4, 53, -24, 9, -48, -4, 58, 
-68, -34, 34, 51, -51, 0, 58, -29, 4, -53, -9, 58, 
-73, -39, 34, 56, -53, -2, 58, -34, 4, -58, -14, 53, 
-87, -34, 53, 61, -70, 9, 63, -19, 9, -48, -14, 53, 
-87, -24, 63, 56, -75, 19, 63, -14, 14, -43, -9, 58, 
-87, -19, 68, 53, -78, 24, 68, -9, 19, -39, -9, 63, 
-78, -4, 73, 41, -75, 34, 73, -4, 29, -39, -9, 68, 
-78, -29, 48, 53, -63, 9, 63, -14, 24, -43, -9, 63, 
-78, -29, 48, 53, -63, 9, 63, -9, 24, -34, -9, 58, 
-78, -24, 53, 51, -65, 14, 63, -9, 19, -39, -4, 53, 
-58, -24, 34, 41, -46, 4, 63, -9, 14, -48, -4, 48, 
-78, -29, 48, 53, -63, 9, 58, -9, 14, -53, -19, 43, 
-87, -34, 53, 61, -70, 9, 58, -9, 14, -58, -24, 39, 
-97, -39, 58, 68, -78, 9, 58, -9, 14, -68, -34, 43, 
-102, -43, 58, 73, -80, 7, 58, -9, 14, -73, -39, 39, 
-102, -29, 73, 65, -87, 21, 63, 4, 29, -58, -29, 39, 
-102, -29, 73, 65, -87, 21, 63, 4, 29, -48, -24, 43, 
-107, -24, 82, 65, -95, 29, 68, 4, 29, -43, -19, 48, 
-107, -24, 82, 65, -95, 29, 73, 4, 29, -39, -24, 48, 
-102, -14, 87, 58, -95, 36, 78, 4, 24, -43, -29, 39, 
-107, -9, 97, 58, -102, 43, 73, 4, 24, -43, -19, 39, 
-107, -4, 102, 56, -104, 48, 73, 9, 34, -39, -19, 39, 
-107, 0, 107, 53, -107, 53, 73, 9, 39, -34, -19, 39, 
-97, -19, 78, 58, -87, 29, 102, 48, 68, -14, 19, 73, 
-87, 58, 146, 14, -117, 102, 87, 39, 58, -19, 9, 58, 
-97, 43, 141, 26, -119, 92, 78, 39, 58, -19, 4, 48, 
-97, 39, 136, 29, -117, 87, 78, 39, 58, -19, 0, 48, 
-97, 34, 131, 31, -114, 82, 78, 39, 58, -19, -4, 48, 
-97, 29, 126, 34, -112, 78, 78, 39, 58, -19, -9, 48, 
-87, 29, 117, 29, -102, 73, 82, 29, 68, -24, -19, 43, 
-92, 24, 117, 34, -104, 70, 82, 34, 68, -24, -19, 48, 
-97, 14, 112, 41, -104, 63, 82, 39, 68, -29, -19, 53, 
-97, 14, 112, 41, -104, 63, 82, 43, 68, -29, -9, 53, 
-97, 9, 107, 43, -102, 58, 87, 34, 78, -14, 4, 53, 
-107, 19, 126, 43, -117, 73, 87, 34, 78, -9, 4, 58, 
-117, 24, 141, 46, -129, 82, 87, 34, 87, 0, 9, 58, 
-126, 19, 146, 53, -136, 82, 87, 34, 102, 4, 14, 63, 
-102, 39, 141, 31, -122, 90, 102, 43, 102, 14, 29, 68, 
-87, 73, 161, 7, -124, 117, 102, 43, 112, 29, 29, 78, 
-68, 102, 170, -17, -119, 136, 107, 43, 122, 34, 34, 92, 
-53, 117, 170, -31, -112, 143, 107, 43, 122, 39, 39, 97, 
-73, 102, 175, -14, -124, 139, 112, 48, 131, 43, 29, 107, 
-82, 87, 170, -2, -126, 129, 107, 48, 131, 43, 34, 112, 
-92, 82, 175, 4, -134, 129, 102, 43, 131, 43, 34, 117, 
-102, 87, 190, 7, -146, 139, 87, 39, 126, 43, 34, 117, 
-92, 78, 170, 7, -131, 124, 73, 34, 112, 39, 14, 102, 
-87, 73, 161, 7, -124, 117, 63, 34, 112, 24, 4, 97, 
-82, 68, 151, 7, -117, 109, 53, 29, 102, 19, -4, 92, 
-78, 68, 146, 4, -112, 107, 34, 24, 97, 4, -14, 87, 
-68, 78, 146, -4, -107, 112, 29, 14, 97, 14, -4, 73, 
-53, 73, 126, -9, -90, 100, 19, 19, 97, 14, -9, 73, 
-29, 63, 92, -17, -61, 78, 19, 29, 97, 9, -14, 68, 
-14, 43, 58, -14, -36, 51, 14, 34, 82, 4, -24, 68, 
-19, 29, 48, -4, -34, 39, 24, 39, 73, 9, -14, 82, 
-24, 19, 43, 2, -34, 31, 24, 39, 73, 4, -14, 78, 
-24, 4, 29, 9, -26, 17, 24, 43, 68, 4, -14, 78, 
-29, -9, 19, 19, -24, 4, 24, 53, 58, -9, -24, 78, 
-43, -19, 24, 31, -34, 2, 34, 58, 43, -24, -29, 63, 
-63, -39, 24, 51, -43, -7, 39, 63, 43, -29, -39, 58, 
-63, -48, 14, 56, -39, -17, 43, 63, 39, -39, -48, 53, 
-73, -53, 19, 63, -46, -17, 43, 58, 39, -43, -58, 43, 
-58, -34, 24, 46, -41, -4, 29, 48, 29, -48, -63, 43, 
-34, -14, 19, 24, -26, 2, 24, 48, 29, -48, -68, 43, 
-14, 4, 19, 4, -17, 12, 19, 53, 24, -48, -68, 48, 
0, 34, 34, -17, -17, 34, 14, 53, 19, -53, -73, 48, 
0, 19, 19, -9, -9, 19, 29, 63, 24, -48, -73, 58, 
-19, -4, 14, 12, -17, 4, 43, 73, 29, -48, -68, 63, 
-34, -34, 0, 34, -17, -17, 53, 82, 34, -43, -63, 68, 
-53, -53, 0, 53, -26, -26, 63, 92, 39, -39, -63, 63, 
-73, -43, 29, 58, -51, -7, 63, 97, 29, -48, -68, 68, 
-82, -53, 29, 68, -56, -12, 63, 97, 29, -53, -73, 63, 
-107, -58, 48, 82, -78, -4, 82, 97, 29, -58, -78, 53, 
-107, -58, 48, 82, -78, -4, 87, 107, 34, -63, -82, 48, 
-97, -39, 58, 68, -78, 9, 92, 92, 34, -53, -92, 48, 
-92, -34, 58, 63, -75, 12, 102, 87, 34, -53, -92, 48, 
-92, -29, 63, 61, -78, 17, 102, 82, 34, -53, -97, 48, 
-87, -24, 63, 56, -75, 19, 102, 78, 34, -53, -102, 48, 
-92, -39, 53, 65, -73, 7, 102, 58, 43, -63, -102, 58, 
-102, -43, 58, 73, -80, 7, 102, 48, 39, -63, -107, 48, 
-107, -48, 58, 78, -82, 4, 107, 39, 34, -68, -107, 48, 
-112, -53, 58, 82, -85, 2, 107, 29, 34, -68, -102, 48, 
-117, -63, 53, 90, -85, -4, 102, 24, 34, -78, -102, 43, 
-131, -68, 63, 100, -97, -2, 102, 19, 29, -78, -102, 43, 
-136, -68, 68, 102, -102, 0, 102, 14, 24, -78, -107, 43, 
-141, -73, 68, 107, -104, -2, 102, 9, 19, -78, -107, 43, 
-122, -78, 43, 100, -82, -17, 97, 19, 14, -78, -117, 43, 
-122, -78, 43, 100, -82, -17, 97, 19, 9, -78, -117, 43, 
-122, -78, 43, 100, -82, -17, 97, 14, 9, -78, -117, 43, 
-131, -82, 48, 107, -90, -17, 97, 14, 9, -78, -117, 39, 
-122, -73, 48, 97, -85, -12, 107, 24, 24, -87, -131, 39, 
-102, -63, 39, 82, -70, -12, 107, 24, 24, -87, -131, 43, 
-92, -48, 43, 70, -68, -2, 107, 24, 24, -87, -131, 43, 
-82, -39, 43, 61, -63, 2, 107, 24, 24, -92, -131, 43, 
-58, -9, 48, 34, -53, 19, 122, 34, 39, -82, -117, 43, 
-58, -39, 19, 48, -39, -9, 112, 48, 34, -73, -107, 34, 
-78, -63, 14, 70, -46, -24, 117, 53, 29, -82, -112, 34, 
-97, -73, 24, 85, -61, -24, 131, 73, 48, -73, -102, 34, 
-78, -68, 9, 73, -43, -29, 136, 117, 87, -58, -92, 34, 
-78, -78, 0, 78, -39, -39, 146, 151, 107, -39, -92, 29, 
-131, -87, 43, 109, -87, -21, 136, 170, 117, -34, -102, 34, 
-131, -78, 53, 104, -92, -12, 117, 190, 126, -24, -102, 34, 
-39, -53, -14, 46, -12, -34, 97, 224, 122, -24, -92, 58, 
39, -19, -58, -9, 48, -39, 63, 258, 117, -14, -92, 97, 
97, 4, -92, -51, 95, -43, 9, 317, 131, 4, -58, 131, 
180, 34, -146, -107, 163, -56, -53, 356, 131, 43, -19, 156, 
253, 43, -209, -148, 231, -82, -112, 370, 117, 53, 14, 195, 
292, 53, -239, -173, 265, -92, -180, 361, 87, 48, 14, 219, 
351, 87, -263, -219, 307, -87, -253, 326, 58, 43, 19, 229, 
419, 107, -312, -263, 366, -102, -346, 273, 19, 34, 29, 253, 
468, 141, -326, -305, 397, -92, -429, 204, -39, 19, 58, 312, 
502, 175, -326, -339, 414, -75, -527, 131, -151, -34, 68, 366, 
541, 156, -385, -348, 463, -114, -624, 34, -302, -112, 48, 361, 
551, 102, -448, -326, 500, -173, -707, -78, -453, -200, -14, 331, 
585, 39, -546, -312, 566, -253, -775, -185, -600, -278, -53, 322, 
658, 0, -658, -329, 658, -329, -863, -278, -736, -361, -82, 331, 
751, 34, -717, -392, 734, -341, -980, -380, -844, -414, -112, 351, 
844, 78, -766, -461, 805, -344, -1098, -478, -912, -448, -112, 380, 
951, 87, -863, -519, 907, -387, -1176, -522, -951, -478, -92, 409, 
1063, 48, -1015, -556, 1039, -483, -1239, -556, -1005, -517, -97, 439, 
1127, 0, -1127, -563, 1127, -563, -1317, -624, -1093, -575, -117, 453, 
1156, -29, -1185, -563, 1171, -607, -1385, -717, -1166, -624, -151, 448, 
1185, -78, -1263, -553, 1224, -671, -1390, -756, -1210, -658, -175, 448, 
1215, -151, -1366, -531, 1290, -758, -1381, -785, -1263, -702, -219, 419, 
1254, -214, -1468, -519, 1361, -841, -1400, -834, -1337, -780, -297, 366, 
1283, -287, -1571, -497, 1427, -929, -1390, -863, -1376, -834, -346, 331, 
1288, -385, -1673, -451, 1481, -1029, -1322, -902, -1385, -858, -366, 312, 
1273, -488, -1761, -392, 1517, -1124, -1249, -956, -1405, -927, -419, 263, 
1249, -536, -1786, -356, 1517, -1161, -1180, -1000, -1444, -1010, -522, 170, 
1220, -585, -1805, -317, 1512, -1195, -1098, -1019, -1459, -1073, -590, 92, 
1200, -629, -1830, -285, 1515, -1229, -1019, -1024, -1449, -1098, -624, 43, 
1161, -678, -1839, -241, 1500, -1259, -971, -1010, -1429, -1107, -634, 4, 
1132, -707, -1839, -212, 1485, -1273, -951, -995, -1410, -1122, -663, -29, 
1112, -732, -1844, -190, 1478, -1288, -922, -1005, -1395, -1122, -692, -63, 
1098, -751, -1849, -173, 1473, -1300, -854, -985, -1385, -1122, -727, -112, 
1054, -810, -1864, -122, 1459, -1337, -780, -956, -1376, -1151, -780, -180, 
990, -888, -1878, -51, 1434, -1383, -722, -946, -1381, -1190, -854, -263, 
932, -936, -1869, 2, 1400, -1403, -663, -922, -1366, -1215, -907, -326, 
927, -936, -1864, 4, 1395, -1400, -580, -844, -1322, -1224, -941, -370, 
912, -956, -1869, 21, 1390, -1412, -512, -780, -1268, -1215, -971, -414, 
849, -985, -1834, 68, 1342, -1410, -483, -751, -1229, -1210, -980, -458, 
829, -941, -1771, 56, 1300, -1356, -473, -732, -1171, -1156, -951, -458, 
858, -829, -1688, -14, 1273, -1259, -448, -692, -1088, -1078, -888, -414, 
814, -771, -1586, -21, 1200, -1178, -429, -673, -1019, -1000, -819, -385, 
761, -732, -1493, -14, 1127, -1112, -419, -658, -980, -956, -790, -370, 
732, -673, -1405, -29, 1068, -1039, -400, -634, -927, -917, -771, -356, 
727, -605, -1332, -61, 1029, -968, -375, -585, -844, -868, -732, -326, 
727, -551, -1278, -87, 1002, -915, -331, -507, -746, -780, -673, -292, 
697, -502, -1200, -97, 949, -851, -297, -419, -639, -702, -600, -253, 
663, -468, -1132, -97, 897, -800, -292, -356, -561, -658, -570, -229, 
634, -424, -1058, -104, 846, -741, -287, -297, -527, -639, -561, -219, 
629, -375, -1005, -126, 817, -690, -268, -248, -492, -605, -536, -214, 
585, -312, -897, -136, 741, -605, -219, -185, -439, -541, -483, -190, 
492, -253, -746, -119, 619, -500, -175, -146, -380, -473, -424, -146, 
395, -234, -629, -80, 512, -431, -151, -131, -336, -429, -395, -122, 
326, -229, -556, -48, 441, -392, -112, -112, -302, -414, -366, -112, 
248, -204, -453, -21, 351, -329, -68, -97, -239, -370, -322, -87, 
185, -175, -361, -4, 273, -268, -29, -87, -165, -322, -278, -58, 
136, -161, -297, 12, 217, -229, 14, -78, -107, -292, -268, -53, 
29, -141, -170, 56, 100, -156, 58, -53, -53, -248, -248, -39, 
-78, -117, -39, 97, -19, -78, 107, -24, -4, -219, -224, -9, 
-161, -78, 82, 119, -122, 2, 136, 0, 39, -175, -185, -4, 
-209, -48, 161, 129, -185, 56, 165, 9, 68, -136, -141, 19, 
-239, -39, 200, 139, -219, 80, 190, 34, 78, -107, -112, 48, 
-248, -29, 219, 139, -234, 95, 209, 39, 92, -87, -107, 53, 
-248, -14, 234, 131, -241, 109, 204, 43, 107, -82, -107, 48, 
-244, -14, 229, 129, -236, 107, 209, 43, 112, -78, -112, 43, 
-248, -19, 229, 134, -239, 104, 209, 43, 112, -73, -117, 39, 
-244, -19, 224, 131, -234, 102, 209, 43, 117, -73, -122, 29, 
-239, -24, 214, 131, -226, 95, 209, 34, 112, -87, -117, 34, 
-239, -29, 209, 134, -224, 90, 209, 29, 112, -87, -112, 34, 
-239, -34, 204, 136, -222, 85, 214, 14, 112, -87, -112, 39, 
-234, -39, 195, 136, -214, 78, 214, 9, 112, -92, -107, 39, 
-244, -29, 214, 136, -229, 92, 219, 9, 112, -87, -107, 29, 
-263, -24, 239, 143, -251, 107, 224, 9, 122, -78, -97, 39, 
-283, -24, 258, 153, -270, 117, 229, 9, 126, -68, -92, 43, 
-278, -9, 268, 143, -273, 129, 229, 14, 131, -58, -92, 43, 
-263, 0, 263, 131, -263, 131, 239, 4, 141, -43, -102, 58, 
-273, -4, 268, 139, -270, 131, 239, 9, 146, -43, -97, 58, 
-273, -4, 268, 139, -270, 131, 234, 9, 151, -43, -97, 43, 
-273, -4, 268, 139, -270, 131, 229, 4, 151, -43, -102, 43, 
-278, -4, 273, 141, -275, 134, 239, 9, 161, -39, -102, 53, 
-283, 0, 283, 141, -283, 141, 244, 14, 165, -39, -97, 53, 
-287, 0, 287, 143, -287, 143, 244, 19, 165, -29, -87, 53, 
-292, 9, 302, 141, -297, 156, 248, 24, 165, -29, -82, 53, 
-278, 19, 297, 129, -287, 158, 239, 9, 161, -29, -92, 43, 
-283, 9, 292, 136, -287, 151, 229, 14, 161, -34, -97, 48, 
-287, 9, 297, 139, -292, 153, 224, 9, 161, -39, -97, 43, 
-283, 19, 302, 131, -292, 161, 219, 4, 156, -43, -102, 39, 
-287, 29, 317, 129, -302, 173, 229, 9, 170, -39, -97, 48, 
-287, 43, 331, 122, -309, 187, 229, 14, 180, -29, -87, 43, 
-297, 63, 361, 117, -329, 212, 229, 24, 185, -24, -82, 43, 
-302, 73, 375, 114, -339, 224, 229, 29, 190, -19, -78, 43, 
-312, 43, 356, 134, -334, 200, 244, 24, 200, -4, -63, 58, 
-317, 34, 351, 141, -334, 192, 253, 29, 209, 9, -58, 63, 
-322, 29, 351, 146, -336, 190, 253, 24, 224, 19, -43, 68, 
-326, 29, 356, 148, -341, 192, 253, 24, 224, 29, -39, 68, 
-336, 53, 390, 141, -363, 222, 253, 14, 224, 19, -48, 63, 
-336, 53, 390, 141, -363, 222, 253, 14, 229, 19, -48, 63, 
-336, 53, 390, 141, -363, 222, 253, 19, 234, 24, -39, 63, 
-346, 53, 400, 146, -373, 226, 263, 19, 239, 24, -39, 58, 
-336, 68, 405, 134, -370, 236, 258, 24, 253, 48, -29, 68, 
-331, 87, 419, 122, -375, 253, 258, 34, 268, 53, -24, 73, 
-346, 107, 453, 119, -400, 280, 263, 39, 268, 53, -19, 82, 
-351, 131, 483, 109, -417, 307, 268, 43, 273, 58, -9, 87, 
-366, 122, 488, 122, -427, 305, 268, 34, 273, 58, -14, 73, 
-370, 122, 492, 124, -431, 307, 268, 34, 278, 58, -19, 68, 
-390, 122, 512, 134, -451, 317, 283, 39, 287, 58, -9, 63, 
-390, 126, 517, 131, -453, 322, 297, 39, 297, 58, -14, 58, 
-400, 117, 517, 141, -458, 317, 302, 53, 312, 58, -14, 58, 
-419, 102, 522, 158, -470, 312, 317, 53, 322, 68, -14, 58, 
-429, 82, 512, 173, -470, 297, 326, 58, 331, 73, -9, 53, 
-439, 68, 507, 185, -473, 287, 336, 63, 336, 78, -4, 48, 
-444, 97, 541, 173, -492, 319, 361, 68, 341, 92, 9, 58, 
-448, 107, 556, 170, -502, 331, 370, 87, 361, 102, 9, 63, 
-463, 122, 585, 170, -524, 353, 385, 92, 366, 107, 9, 63, 
-483, 136, 619, 173, -551, 378, 395, 92, 390, 117, 9, 63, 
-507, 126, 634, 190, -570, 380, 414, 107, 395, 117, 9, 58, 
-517, 117, 634, 200, -575, 375, 419, 117, 409, 122, 19, 48, 
-536, 112, 649, 212, -592, 380, 424, 131, 414, 122, 19, 48, 
-551, 107, 658, 222, -605, 383, 444, 151, 434, 136, 19, 53, 
-556, 117, 673, 219, -614, 395, 444, 151, 463, 151, 39, 63, 
-566, 117, 683, 224, -624, 400, 444, 161, 478, 170, 43, 63, 
-575, 126, 702, 224, -639, 414, 463, 165, 492, 185, 43, 63, 
-585, 151, 736, 217, -661, 444, 463, 180, 497, 200, 48, 63, 
-590, 170, 761, 209, -675, 466, 468, 195, 522, 214, 63, 73, 
-580, 175, 756, 202, -668, 466, 488, 209, 546, 224, 68, 82, 
-580, 175, 756, 202, -668, 466, 497, 234, 556, 244, 68, 82, 
-580, 180, 761, 200, -671, 470, 512, 253, 575, 244, 73, 82, 
-600, 170, 771, 214, -685, 470, 512, 258, 590, 239, 68, 82, 
-614, 180, 795, 217, -705, 488, 517, 273, 605, 253, 73, 92, 
-624, 195, 819, 214, -722, 507, 522, 297, 624, 273, 97, 97, 
-639, 209, 849, 214, -744, 529, 517, 307, 629, 283, 97, 97, 
-639, 214, 854, 212, -746, 534, 517, 307, 644, 302, 107, 97, 
-639, 234, 873, 202, -756, 553, 522, 322, 658, 312, 117, 112, 
-644, 234, 878, 204, -761, 556, 527, 346, 673, 331, 136, 117, 
-644, 244, 888, 200, -766, 566, 531, 356, 678, 341, 146, 126, 
-629, 258, 888, 185, -758, 573, 507, 361, 702, 356, 161, 131, 
-610, 273, 883, 168, -746, 578, 497, 375, 712, 380, 175, 146, 
-605, 283, 888, 161, -746, 585, 483, 400, 722, 395, 185, 151, 
-585, 283, 868, 151, -727, 575, 473, 409, 727, 409, 195, 161, 
-575, 297, 873, 139, -724, 585, 453, 429, 722, 405, 195, 185, 
-561, 312, 873, 124, -717, 592, 439, 429, 717, 409, 209, 195, 
-551, 326, 878, 112, -714, 602, 414, 429, 707, 405, 219, 204, 
-531, 331, 863, 100, -697, 597, 405, 429, 692, 400, 224, 204, 
-507, 336, 844, 85, -675, 590, 390, 434, 688, 400, 219, 224, 
-478, 336, 814, 70, -646, 575, 380, 424, 678, 400, 219, 229, 
-429, 322, 751, 53, -590, 536, 366, 424, 658, 400, 224, 234, 
-414, 322, 736, 46, -575, 529, 341, 414, 639, 395, 224, 239, 
-400, 312, 712, 43, -556, 512, 326, 405, 614, 380, 224, 234, 
-361, 307, 668, 26, -514, 488, 297, 395, 595, 361, 214, 239, 
-346, 292, 639, 26, -492, 466, 278, 370, 566, 341, 204, 239, 
-322, 268, 590, 26, -456, 429, 258, 351, 536, 326, 200, 239, 
-322, 234, 556, 43, -439, 395, 244, 341, 512, 317, 185, 248, 
-297, 214, 512, 41, -405, 363, 219, 322, 483, 297, 185, 248, 
-273, 190, 463, 41, -368, 326, 219, 297, 444, 263, 175, 239, 
-263, 165, 429, 48, -346, 297, 209, 278, 419, 234, 156, 234, 
-253, 161, 414, 46, -334, 287, 185, 253, 370, 214, 136, 224, 
-234, 146, 380, 43, -307, 263, 161, 224, 346, 204, 122, 214, 
-209, 131, 341, 39, -275, 236, 136, 200, 322, 185, 102, 185, 
-195, 136, 331, 29, -263, 234, 122, 175, 292, 165, 82, 170, 
-170, 146, 317, 12, -244, 231, 107, 170, 273, 165, 97, 180, 
-165, 126, 292, 19, -229, 209, 97, 151, 248, 151, 92, 180, 
-161, 136, 297, 12, -229, 217, 82, 126, 229, 126, 87, 175, 
-146, 141, 287, 2, -217, 214, 78, 112, 209, 112, 82, 161, 
-122, 131, 253, -4, -187, 192, 82, 87, 170, 78, 63, 156, 
-92, 107, 200, -7, -146, 153, 82, 73, 146, 39, 48, 146, 
-68, 112, 180, -21, -124, 146, 82, 58, 136, 24, 34, 141, 
-48, 107, 156, -29, -102, 131, 87, 43, 131, 19, 24, 136, 
-63, 68, 131, -2, -97, 100, 87, 48, 117, 0, 19, 112, 
-53, 39, 92, 7, -73, 65, 87, 39, 102, -9, 14, 87, 
-58, 14, 73, 21, -65, 43, 82, 29, 87, -14, 0, 78, 
-63, -4, 58, 34, -61, 26, 82, 19, 68, -24, -4, 58, 
-82, -14, 68, 48, -75, 26, 82, 19, 48, -29, 0, 43, 
-97, -19, 78, 58, -87, 29, 78, 4, 43, -39, -9, 29, 
-107, -19, 87, 63, -97, 34, 78, 0, 43, -43, -9, 19, 
-112, -19, 92, 65, -102, 36, 78, -4, 43, -53, -9, 9, 
-97, -9, 87, 53, -92, 39, 63, -19, 24, -63, 0, -4, 
-82, -9, 73, 46, -78, 31, 58, -24, 19, -73, 0, -19, 
-73, 0, 73, 36, -73, 36, 53, -29, 19, -78, -4, -29, 
-58, 9, 68, 24, -63, 39, 39, -29, 14, -73, -4, -39, 
-68, -4, 63, 36, -65, 29, 53, -24, 14, -63, 0, -29, 
-68, -9, 58, 39, -63, 24, 63, -14, 19, -58, 4, -29, 
-78, -14, 63, 46, -70, 24, 73, -4, 19, -53, 14, -29, 
-92, -19, 73, 56, -82, 26, 78, 4, 24, -48, 24, -34, 
-87, -19, 68, 53, -78, 24, 82, 9, 34, -53, 14, -43, 
-87, -14, 73, 51, -80, 29, 82, 14, 34, -53, 19, -48, 
-87, -14, 73, 51, -80, 29, 87, 19, 34, -53, 19, -53, 
-78, -4, 73, 41, -75, 34, 92, 24, 39, -58, 19, -58, 
-73, -9, 63, 41, -68, 26, 92, 14, 29, -68, 9, -73, 
-78, -9, 68, 43, -73, 29, 92, 19, 34, -53, 9, -87, 
-82, -4, 78, 43, -80, 36, 92, 19, 34, -53, 14, -102, 
-68, -4, 63, 36, -65, 29, 92, 19, 34, -58, 14, -117, 
-82, 4, 87, 39, -85, 46, 87, 24, 48, -39, 29, -102, 
-97, 4, 102, 46, -100, 53, 87, 29, 53, -29, 43, -97, 
-112, 4, 117, 53, -114, 61, 87, 34, 58, -24, 53, -82, 
-122, 4, 126, 58, -124, 65, 87, 39, 63, -14, 68, -78, 
-107, 0, 107, 53, -107, 53, 87, 48, 58, -14, 82, -87, 
-102, 0, 102, 51, -102, 51, 82, 53, 58, -9, 82, -92, 
-102, 4, 107, 48, -104, 56, 82, 58, 58, -9, 82, -97, 
-97, 4, 102, 46, -100, 53, 82, 63, 58, -9, 73, -107, 
-92, 0, 92, 46, -92, 46, 92, 82, 43, -29, 63, -126, 
-97, -9, 87, 53, -92, 39, 107, 87, 39, -39, 48, -126, 
-107, 4, 112, 51, -109, 58, 107, 78, 53, -34, 53, -136, 
-107, 9, 117, 48, -112, 63, 107, 78, 58, -29, 58, -136, 
-107, 14, 122, 46, -114, 68, 107, 78, 63, -24, 63, -136, 
-107, 19, 126, 43, -117, 73, 107, 78, 68, -19, 68, -136, 
-107, 19, 126, 43, -117, 73, 112, 58, 87, 0, 73, -146, 
-112, 14, 126, 48, -119, 70, 112, 53, 87, 4, 78, -146, 
-117, 4, 122, 56, -119, 63, 112, 48, 87, 4, 82, -146, 
-117, 4, 122, 56, -119, 63, 112, 43, 87, 9, 97, -151, 
-107, 29, 136, 39, -122, 82, 117, 34, 107, 24, 117, -146, 
-107, 48, 156, 29, -131, 102, 117, 24, 107, 39, 122, -146, 
-107, 63, 170, 21, -139, 117, 117, 14, 117, 58, 131, -151, 
-107, 68, 175, 19, -141, 122, 117, 4, 131, 73, 141, -151, 
-112, 82, 195, 14, -153, 139, 112, 4, 117, 73, 146, -151, 
-117, 102, 219, 7, -168, 161, 112, 4, 122, 78, 146, -146, 
-117, 117, 234, 0, -175, 175, 117, 4, 126, 73, 151, -136, 
-122, 117, 239, 2, -180, 178, 117, 4, 122, 68, 156, -136, 
-97, 131, 229, -17, -163, 180, 102, 19, 122, 73, 151, -151, 
-82, 126, 209, -21, -146, 168, 97, 19, 122, 73, 151, -151, 
-68, 131, 200, -31, -134, 165, 92, 14, 122, 73, 146, -151, 
-53, 146, 200, -46, -126, 173, 78, 9, 117, 73, 141, -156, 
-34, 141, 175, -53, -104, 158, 68, 19, 122, 87, 156, -146, 
-29, 131, 161, -51, -95, 146, 63, 24, 131, 92, 161, -146, 
-24, 122, 146, -48, -85, 134, 58, 24, 131, 107, 165, -146, 
-19, 117, 136, -48, -78, 126, 43, 24, 136, 112, 170, -146, 
-24, 122, 146, -48, -85, 134, 39, 24, 126, 102, 161, -151, 
-24, 122, 146, -48, -85, 134, 29, 29, 126, 102, 156, -151, 
-14, 117, 131, -51, -73, 124, 29, 39, 126, 97, 151, -156, 
-14, 102, 117, -43, -65, 109, 24, 43, 112, 92, 141, -156, 
-29, 82, 112, -26, -70, 97, 29, 53, 112, 97, 136, -165, 
-34, 68, 102, -17, -68, 85, 34, 48, 112, 92, 131, -175, 
-34, 48, 82, -7, -58, 65, 39, 48, 107, 92, 126, -180, 
-39, 29, 68, 4, -53, 48, 43, 53, 97, 78, 112, -185, 
-43, 24, 68, 9, -56, 46, 43, 48, 73, 78, 117, -185, 
-53, 9, 63, 21, -58, 36, 48, 53, 73, 78, 117, -175, 
-43, 4, 48, 19, -46, 26, 53, 53, 68, 73, 117, -165, 
-43, 4, 48, 19, -46, 26, 53, 48, 68, 73, 117, -161, 
-39, 9, 48, 14, -43, 29, 48, 48, 68, 73, 122, -170, 
-24, 14, 39, 4, -31, 26, 43, 48, 68, 78, 126, -170, 
-14, 19, 34, -2, -24, 26, 39, 53, 63, 82, 136, -165, 
-9, 34, 43, -12, -26, 39, 34, 53, 58, 82, 141, -165, 
4, 39, 34, -21, -14, 36, 43, 53, 58, 82, 126, -170, 
0, 34, 34, -17, -17, 34, 53, 53, 58, 78, 126, -170, 
0, 24, 24, -12, -12, 24, 58, 53, 58, 78, 126, -170, 
-4, 24, 29, -9, -17, 26, 63, 53, 58, 78, 122, -180, 
-34, 14, 48, 9, -41, 31, 82, 58, 63, 87, 122, -170, 
-53, -4, 48, 29, -51, 21, 82, 58, 68, 92, 122, -170, 
-87, -19, 68, 53, -78, 24, 102, 58, 73, 97, 122, -175, 
-97, -29, 68, 63, -82, 19, 107, 68, 82, 102, 122, -175, 
-102, -14, 87, 58, -95, 36, 112, 58, 82, 112, 126, -170, 
-102, -4, 97, 53, -100, 46, 122, 58, 82, 112, 131, -165, 
-107, 4, 112, 51, -109, 58, 122, 58, 82, 112, 131, -161, 
-107, 14, 122, 46, -114, 68, 122, 58, 82, 112, 131, -156, 
-92, 0, 92, 46, -92, 46, 112, 48, 68, 97, 126, -161, 
-92, -4, 87, 48, -90, 41, 112, 48, 58, 92, 117, -175, 
-87, -9, 78, 48, -82, 34, 117, 48, 48, 82, 112, -180, 
-82, -14, 68, 48, -75, 26, 117, 48, 43, 78, 112, -185, 
-82, -14, 68, 48, -75, 26, 117, 39, 48, 78, 102, -180, 
-92, -19, 73, 56, -82, 26, 112, 39, 48, 78, 102, -180, 
-92, -19, 73, 56, -82, 26, 107, 39, 48, 78, 97, -180, 
-92, -24, 68, 58, -80, 21, 102, 39, 48, 78, 97, -180, 
-82, -19, 63, 51, -73, 21, 112, 43, 58, 82, 112, -165, 
-82, -9, 73, 46, -78, 31, 117, 48, 58, 87, 117, -161, 
-82, 0, 82, 41, -82, 41, 122, 48, 63, 92, 122, -156, 
-92, 4, 97, 43, -95, 51, 126, 53, 68, 97, 126, -156, 
-92, -14, 78, 53, -85, 31, 117, 43, 73, 102, 131, -146, 
-82, -14, 68, 48, -75, 26, 117, 43, 73, 107, 131, -141, 
-82, -9, 73, 46, -78, 31, 117, 43, 73, 112, 131, -141, 
-82, -9, 73, 46, -78, 31, 117, 43, 73, 112, 131, -141, 
-87, -19, 68, 53, -78, 24, 102, 43, 48, 82, 107, -170, 
-78, -9, 68, 43, -73, 29, 122, 58, 63, 102, 107, -161, 
-78, -43, 34, 61, -56, -4, 146, 82, 78, 122, 131, -141, 
-87, -63, 24, 75, -56, -19, 141, 92, 87, 122, 131, -141, 
-97, -48, 48, 73, -73, 0, 146, 117, 107, 136, 131, -141, 
-78, -39, 39, 58, -58, 0, 146, 141, 126, 136, 131, -156, 
-34, -39, -4, 36, -14, -21, 136, 161, 126, 131, 131, -151, 
-4, -29, -24, 17, 9, -26, 117, 180, 126, 122, 122, -141, 
0, -24, -24, 12, 12, -24, 97, 204, 112, 112, 112, -136, 
9, -9, -19, 0, 14, -14, 82, 229, 107, 112, 122, -126, 
58, 4, -53, -31, 56, -24, 48, 278, 112, 141, 156, -92, 
112, 14, -97, -63, 104, -41, 14, 326, 112, 170, 185, -48, 
165, 34, -131, -100, 148, -48, -43, 361, 87, 180, 209, -9, 
244, 53, -190, -148, 217, -68, -122, 361, 39, 175, 219, 14, 
341, 68, -273, -204, 307, -102, -204, 336, -19, 151, 214, 14, 
400, 78, -322, -239, 361, -122, -278, 283, -78, 122, 214, 29, 
439, 112, -326, -275, 383, -107, -361, 224, -136, 97, 224, 58, 
531, 146, -385, -339, 458, -119, -458, 151, -239, 43, 204, 73, 
610, 136, -473, -373, 541, -168, -536, 63, -380, -34, 175, 68, 
619, 112, -507, -366, 563, -197, -590, -19, -522, -102, 151, 78, 
614, 68, -546, -341, 580, -239, -649, -136, -658, -180, 122, 68, 
688, 9, -678, -348, 683, -334, -746, -268, -814, -283, 73, 58, 
771, -14, -785, -378, 778, -400, -863, -390, -941, -356, 34, 87, 
844, -19, -863, -412, 854, -441, -990, -488, -1039, -400, 14, 126, 
932, -29, -961, -451, 946, -495, -1088, -570, -1137, -478, -14, 146, 
1015, -97, -1112, -458, 1063, -605, -1161, -644, -1249, -566, -68, 136, 
1078, -146, -1224, -466, 1151, -685, -1239, -722, -1327, -624, -107, 151, 
1156, -165, -1322, -495, 1239, -744, -1307, -814, -1390, -663, -122, 156, 
1234, -165, -1400, -534, 1317, -783, -1322, -873, -1444, -717, -165, 136, 
1283, -209, -1493, -536, 1388, -851, -1312, -912, -1478, -761, -200, 107, 
1283, -312, -1595, -485, 1439, -954, -1312, -941, -1512, -800, -229, 82, 
1273, -424, -1698, -424, 1485, -1061, -1283, -961, -1561, -844, -278, 48, 
1268, -512, -1781, -378, 1525, -1146, -1244, -1000, -1600, -888, -326, 9, 
1254, -585, -1839, -334, 1546, -1212, -1210, -1073, -1639, -956, -380, -48, 
1200, -663, -1864, -268, 1532, -1263, -1141, -1117, -1659, -1010, -444, -112, 
1141, -732, -1873, -204, 1507, -1302, -1039, -1107, -1644, -1054, -492, -180, 
1093, -766, -1859, -163, 1476, -1312, -971, -1093, -1615, -1068, -546, -258, 
1093, -795, -1888, -148, 1490, -1342, -922, -1058, -1576, -1068, -595, -336, 
1102, -805, -1908, -148, 1505, -1356, -863, -1005, -1527, -1044, -605, -380, 
1073, -800, -1873, -136, 1473, -1337, -824, -985, -1454, -1015, -605, -395, 
1000, -829, -1830, -85, 1415, -1329, -775, -995, -1424, -1005, -619, -424, 
956, -888, -1844, -34, 1400, -1366, -702, -985, -1415, -1034, -683, -502, 
912, -936, -1849, 12, 1381, -1393, -624, -956, -1400, -1054, -746, -585, 
863, -985, -1849, 61, 1356, -1417, -575, -922, -1346, -1039, -780, -639, 
800, -1034, -1834, 117, 1317, -1434, -512, -883, -1302, -1039, -814, -683, 
756, -1054, -1810, 148, 1283, -1432, -463, -819, -1268, -1039, -844, -746, 
741, -1024, -1766, 141, 1254, -1395, -414, -771, -1229, -1024, -854, -780, 
732, -980, -1712, 124, 1222, -1346, -385, -741, -1190, -1000, -834, -780, 
732, -907, -1639, 87, 1185, -1273, -370, -702, -1127, -951, -790, -746, 
736, -829, -1566, 46, 1151, -1198, -370, -683, -1049, -854, -712, -678, 
702, -771, -1473, 34, 1088, -1122, -370, -668, -941, -761, -614, -614, 
634, -712, -1346, 39, 990, -1029, -361, -644, -849, -673, -536, -551, 
619, -634, -1254, 7, 936, -944, -346, -585, -766, -595, -478, -512, 
639, -541, -1180, -48, 910, -861, -322, -517, -697, -527, -429, -488, 
639, -463, -1102, -87, 871, -783, -326, -439, -629, -468, -385, -458, 
614, -409, -1024, -102, 819, -717, -312, -366, -551, -405, -346, -434, 
575, -375, -951, -100, 763, -663, -297, -297, -488, -346, -307, -395, 
541, -346, -888, -97, 714, -617, -258, -248, -453, -322, -283, -380, 
517, -302, -819, -107, 668, -561, -219, -185, -409, -297, -268, -366, 
483, -253, -736, -114, 610, -495, -185, -126, -351, -268, -229, -341, 
424, -204, -629, -109, 527, -417, -151, -92, -278, -214, -180, -307, 
356, -151, -507, -102, 431, -329, -102, -73, -214, -151, -131, -287, 
268, -97, -366, -85, 317, -231, -58, -58, -131, -78, -78, -263, 
195, -48, -244, -73, 219, -146, -9, -29, -48, 0, -14, -214, 
136, -14, -151, -61, 143, -82, 43, 0, 9, 58, 34, -170, 
48, -24, -73, -12, 61, -48, 78, 34, 53, 92, 73, -136, 
-39, -19, 19, 29, -29, 0, 97, 43, 73, 102, 78, -126, 
-82, 29, 112, 26, -97, 70, 136, 58, 87, 107, 78, -141, 
-112, 39, 151, 36, -131, 95, 175, 78, 107, 136, 102, -126, 
-141, 39, 180, 51, -161, 109, 200, 82, 126, 146, 122, -107, 
-170, 58, 229, 56, -200, 143, 200, 78, 131, 156, 136, -122, 
-185, 58, 244, 63, -214, 151, 195, 73, 151, 170, 146, -122, 
-195, 53, 248, 70, -222, 151, 200, 73, 161, 185, 151, -122, 
-214, 43, 258, 85, -236, 151, 200, 73, 165, 200, 156, -122, 
-224, 39, 263, 92, -244, 151, 200, 73, 175, 209, 161, -126, 
-214, 53, 268, 80, -241, 161, 195, 58, 170, 200, 151, -122, 
-219, 58, 278, 80, -248, 168, 190, 58, 170, 204, 151, -122, 
-224, 63, 287, 80, -256, 175, 190, 48, 170, 209, 146, -117, 
-224, 68, 292, 78, -258, 180, 185, 48, 170, 209, 146, -117, 
-209, 87, 297, 61, -253, 192, 175, 43, 165, 195, 141, -126, 
-214, 102, 317, 56, -265, 209, 175, 39, 170, 195, 146, -117, 
-219, 112, 331, 53, -275, 222, 175, 34, 170, 195, 146, -112, 
-200, 136, 336, 31, -268, 236, 170, 34, 170, 195, 141, -112, 
-190, 122, 312, 34, -251, 217, 180, 39, 180, 204, 156, -102, 
-204, 102, 307, 51, -256, 204, 190, 48, 185, 209, 165, -97, 
-209, 87, 297, 61, -253, 192, 195, 53, 190, 214, 170, -107, 
-214, 73, 287, 70, -251, 180, 200, 53, 190, 219, 170, -102, 
-229, 63, 292, 82, -261, 178, 200, 43, 180, 224, 165, -112, 
-234, 68, 302, 82, -268, 185, 204, 43, 185, 224, 165, -112, 
-239, 68, 307, 85, -273, 187, 204, 43, 185, 234, 170, -112, 
-244, 78, 322, 82, -283, 200, 209, 43, 185, 234, 170, -112, 
-239, 78, 317, 80, -278, 197, 204, 34, 195, 229, 170, -117, 
-244, 68, 312, 87, -278, 190, 200, 43, 200, 219, 165, -107, 
-248, 68, 317, 90, -283, 192, 200, 43, 204, 209, 165, -107, 
-244, 78, 322, 82, -283, 200, 200, 43, 204, 200, 161, -107, 
-239, 82, 322, 78, -280, 202, 190, 43, 204, 204, 170, -107, 
-239, 92, 331, 73, -285, 212, 190, 43, 209, 214, 175, -112, 
-248, 107, 356, 70, -302, 231, 190, 48, 209, 219, 175, -112, 
-253, 112, 366, 70, -309, 239, 190, 48, 209, 224, 175, -112, 
-244, 107, 351, 68, -297, 229, 204, 48, 219, 229, 175, -102, 
-239, 112, 351, 63, -295, 231, 214, 58, 229, 244, 175, -102, 
-234, 122, 356, 56, -295, 239, 214, 58, 244, 253, 185, -102, 
-229, 136, 366, 46, -297, 251, 214, 63, 244, 263, 185, -107, 
-234, 141, 375, 46, -305, 258, 209, 73, 253, 253, 185, -117, 
-239, 141, 380, 48, -309, 261, 204, 73, 258, 253, 185, -112, 
-244, 141, 385, 51, -314, 263, 200, 78, 263, 258, 195, -107, 
-258, 141, 400, 58, -329, 270, 204, 78, 268, 258, 195, -107, 
-273, 141, 414, 65, -344, 278, 219, 78, 283, 258, 195, -112, 
-273, 146, 419, 63, -346, 283, 219, 82, 297, 258, 190, -112, 
-292, 151, 444, 70, -368, 297, 224, 82, 297, 253, 185, -107, 
-302, 161, 463, 70, -383, 312, 229, 82, 302, 253, 185, -107, 
-297, 146, 444, 75, -370, 295, 239, 97, 307, 263, 195, -107, 
-302, 141, 444, 80, -373, 292, 239, 102, 317, 273, 195, -107, 
-322, 136, 458, 92, -390, 297, 253, 112, 331, 283, 209, -107, 
-322, 136, 458, 92, -390, 297, 268, 117, 346, 292, 209, -107, 
-326, 146, 473, 90, -400, 309, 263, 122, 341, 292, 200, -97, 
-341, 151, 492, 95, -417, 322, 268, 122, 351, 302, 200, -97, 
-346, 151, 497, 97, -422, 324, 268, 126, 361, 307, 204, -102, 
-351, 156, 507, 97, -429, 331, 268, 131, 366, 312, 209, -107, 
-366, 180, 546, 92, -456, 363, 273, 136, 375, 326, 229, -107, 
-370, 185, 556, 92, -463, 370, 283, 156, 400, 336, 234, -102, 
-385, 195, 580, 95, -483, 387, 297, 161, 409, 341, 239, -102, 
-405, 204, 610, 100, -507, 407, 307, 161, 439, 351, 244, -102, 
-400, 209, 610, 95, -505, 409, 317, 180, 444, 351, 248, -117, 
-400, 214, 614, 92, -507, 414, 322, 185, 458, 356, 253, -126, 
-409, 224, 634, 92, -522, 429, 326, 195, 463, 356, 248, -126, 
-414, 234, 649, 90, -531, 441, 346, 209, 483, 370, 244, -122, 
-429, 244, 673, 92, -551, 458, 351, 209, 492, 370, 244, -112, 
-439, 244, 683, 97, -561, 463, 346, 219, 507, 385, 248, -112, 
-448, 253, 702, 97, -575, 478, 361, 224, 522, 395, 248, -112, 
-458, 278, 736, 90, -597, 507, 356, 239, 527, 405, 253, -112, 
-463, 278, 741, 92, -602, 509, 361, 258, 546, 429, 268, -112, 
-463, 273, 736, 95, -600, 505, 380, 268, 575, 439, 273, -102, 
-473, 263, 736, 104, -605, 500, 390, 287, 590, 458, 273, -102, 
-483, 258, 741, 112, -612, 500, 405, 302, 614, 458, 278, -102, 
-497, 273, 771, 112, -634, 522, 409, 307, 624, 453, 273, -97, 
-507, 287, 795, 109, -651, 541, 419, 331, 644, 468, 278, -82, 
-512, 307, 819, 102, -666, 563, 429, 366, 668, 488, 302, -73, 
-522, 326, 849, 97, -685, 588, 429, 385, 678, 497, 302, -68, 
-517, 307, 824, 104, -671, 566, 429, 395, 697, 512, 307, -68, 
-512, 312, 824, 100, -668, 568, 434, 409, 717, 527, 312, -53, 
-512, 297, 810, 107, -661, 553, 439, 434, 736, 551, 326, -48, 
-507, 292, 800, 107, -653, 546, 444, 444, 746, 566, 331, -39, 
-497, 307, 805, 95, -651, 556, 419, 444, 746, 561, 326, -48, 
-483, 322, 805, 80, -644, 563, 409, 453, 751, 575, 331, -39, 
-483, 331, 814, 75, -649, 573, 395, 473, 756, 580, 331, -39, 
-468, 331, 800, 68, -634, 566, 385, 478, 756, 585, 331, -34, 
-448, 341, 790, 53, -619, 566, 366, 483, 756, 595, 341, -14, 
-434, 361, 795, 36, -614, 578, 351, 478, 756, 605, 356, 0, 
-424, 380, 805, 21, -614, 592, 326, 473, 751, 605, 366, 14, 
-405, 390, 795, 7, -600, 592, 317, 468, 741, 605, 370, 19, 
-385, 400, 785, -7, -585, 592, 302, 463, 722, 590, 370, 43, 
-361, 405, 766, -21, -563, 585, 292, 453, 707, 585, 366, 53, 
-317, 395, 712, -39, -514, 553, 278, 453, 683, 580, 366, 63, 
-307, 400, 707, -46, -507, 553, 253, 444, 658, 570, 361, 73, 
-297, 380, 678, -41, -488, 529, 244, 434, 644, 561, 370, 82, 
-263, 366, 629, -51, -446, 497, 219, 424, 634, 546, 361, 92, 
-253, 341, 595, -43, -424, 468, 204, 400, 614, 531, 351, 97, 
-234, 307, 541, -36, -387, 424, 190, 380, 595, 522, 346, 102, 
-214, 302, 517, -43, -366, 409, 156, 356, 556, 507, 336, 112, 
-190, 302, 492, -56, -341, 397, 131, 331, 522, 483, 331, 112, 
-165, 297, 463, -65, -314, 380, 131, 302, 478, 444, 317, 102, 
-156, 292, 448, -68, -302, 370, 122, 278, 448, 409, 292, 97, 
-151, 278, 429, -63, -290, 353, 117, 263, 414, 395, 268, 112, 
-136, 253, 390, -58, -263, 322, 102, 234, 395, 390, 258, 117, 
-117, 229, 346, -56, -231, 287, 87, 209, 375, 375, 244, 102, 
-107, 224, 331, -58, -219, 278, 82, 185, 351, 361, 229, 102, 
-92, 195, 287, -51, -190, 241, 63, 161, 322, 331, 209, 87, 
-87, 156, 244, -34, -165, 200, 48, 141, 287, 307, 190, 82, 
-82, 146, 229, -31, -156, 187, 29, 117, 258, 273, 170, 73, 
-68, 131, 200, -31, -134, 165, 19, 102, 229, 248, 151, 53, 
-73, 126, 200, -26, -136, 163, 34, 97, 200, 234, 131, 29, 
-63, 97, 161, -17, -112, 129, 34, 82, 175, 195, 117, 19, 
-58, 97, 156, -19, -107, 126, 34, 68, 165, 180, 102, 14, 
-58, 87, 146, -14, -102, 117, 39, 53, 161, 175, 92, 9, 
-43, 58, 102, -7, -73, 80, 29, 39, 131, 151, 78, -14, 
-24, 48, 73, -12, -48, 61, 29, 29, 112, 136, 63, -29, 
-19, 43, 63, -12, -41, 53, 24, 19, 92, 126, 39, -29, 
-14, 43, 58, -14, -36, 51, 24, 9, 68, 112, 24, -39, 
-24, 53, 78, -14, -51, 65, 14, 0, 73, 117, 43, -34, 
-39, 58, 97, -9, -68, 78, 9, -14, 73, 117, 48, -29, 
-48, 68, 117, -9, -82, 92, 9, -19, 78, 122, 63, -19, 
-53, 78, 131, -12, -92, 104, 9, -24, 82, 122, 78, -9, 
-43, 73, 117, -14, -80, 95, 9, -29, 73, 122, 73, 0, 
-43, 58, 102, -7, -73, 80, 9, -34, 68, 112, 68, 0, 
-48, 53, 102, -2, -75, 78, 9, -39, 68, 107, 58, 4, 
-48, 48, 97, 0, -73, 73, 0, -39, 63, 112, 53, 9, 
-48, 34, 82, 7, -65, 58, 0, -34, 48, 107, 34, -4, 
-39, 29, 68, 4, -53, 48, 4, -34, 48, 97, 24, -9, 
-39, 24, 63, 7, -51, 43, 9, -34, 43, 87, 19, -14, 
-43, 19, 63, 12, -53, 41, 9, -34, 43, 78, 14, -24, 
-58, 4, 63, 26, -61, 34, 14, -39, 53, 78, 9, -39, 
-58, 4, 63, 26, -61, 34, 14, -43, 53, 82, 9, -48, 
-58, 0, 58, 29, -58, 29, 19, -48, 53, 87, 4, -58, 
-48, 4, 53, 21, -51, 29, 24, -53, 58, 87, 0, -68, 
-63, 0, 63, 31, -63, 31, 14, -43, 58, 92, 14, -58, 
-78, 9, 87, 34, -82, 48, 14, -39, 63, 112, 19, -48, 
-92, 24, 117, 34, -104, 70, 14, -39, 63, 117, 29, -39, 
-87, 34, 122, 26, -104, 78, 14, -39, 63, 117, 34, -29, 
-78, 34, 112, 21, -95, 73, 29, -29, 63, 112, 34, -19, 
-68, 34, 102, 17, -85, 68, 29, -29, 63, 107, 34, -19, 
-58, 34, 92, 12, -75, 63, 29, -29, 63, 97, 29, -9, 
-43, 34, 78, 4, -61, 56, 29, -29, 63, 92, 29, -9, 
-43, 39, 82, 2, -63, 61, 39, -34, 68, 92, 29, -24, 
-43, 39, 82, 2, -63, 61, 34, -34, 68, 97, 24, -24, 
-48, 43, 92, 2, -70, 68, 34, -34, 68, 97, 19, -24, 
-48, 43, 92, 2, -70, 68, 34, -34, 68, 97, 4, -29, 
-24, 29, 53, -2, -39, 41, 14, -43, 63, 78, -4, -48, 
-29, 19, 48, 4, -39, 34, 24, -24, 63, 82, -19, -58, 
-39, 9, 48, 14, -43, 29, 29, -19, 73, 102, -4, -48, 
-58, 9, 68, 24, -63, 39, 19, -19, 78, 97, 0, -39, 
-63, 19, 82, 21, -73, 51, 24, -9, 78, 97, 9, -29, 
-68, 19, 87, 24, -78, 53, 29, -9, 78, 97, 9, -29, 
-73, 19, 92, 26, -82, 56, 34, -9, 78, 97, 9, -29, 
-78, 19, 97, 29, -87, 58, 39, -9, 78, 97, 9, -29, 
-68, 34, 102, 17, -85, 68, 43, -19, 102, 112, 14, -24, 
-73, 43, 117, 14, -95, 80, 43, -14, 107, 122, 19, -19, 
-78, 48, 126, 14, -102, 87, 43, -9, 112, 126, 24, -14, 
-78, 63, 141, 7, -109, 102, 43, -4, 117, 136, 39, -14, 
-53, 78, 131, -12, -92, 104, 43, -9, 117, 151, 53, -4, 
-48, 97, 146, -24, -97, 122, 39, -14, 117, 156, 53, 0, 
-43, 112, 156, -34, -100, 134, 34, -19, 126, 165, 58, 0, 
-39, 117, 156, -39, -97, 136, 29, -24, 141, 170, 63, 4, 
-19, 131, 151, -56, -85, 141, 24, -34, 136, 170, 58, 4, 
-19, 151, 170, -65, -95, 161, 24, -34, 141, 175, 58, 9, 
-14, 165, 180, -75, -97, 173, 29, -34, 146, 170, 63, 19, 
-14, 165, 180, -75, -97, 173, 29, -34, 141, 165, 68, 19, 
-19, 175, 195, -78, -107, 185, 24, -29, 146, 175, 78, 24, 
-24, 165, 190, -70, -107, 178, 19, -29, 151, 180, 82, 34, 
-29, 165, 195, -68, -112, 180, 14, -34, 156, 185, 82, 43, 
-34, 175, 209, -70, -122, 192, 0, -39, 156, 190, 82, 48, 
-29, 190, 219, -80, -124, 204, -19, -34, 156, 200, 92, 53, 
-29, 190, 219, -80, -124, 204, -24, -24, 161, 200, 92, 58, 
-29, 190, 219, -80, -124, 204, -29, -19, 156, 209, 92, 63, 
-29, 195, 224, -82, -126, 209, -43, -14, 156, 209, 92, 68, 
